Data from R_1_S_MAYP1165941__0__19-57-57-997.txt Node

Date: Wed May 31 19:57:57 JST 2023
User: takis
Spectrometer: MAYP116594
Trigger mode: 0
Integration Time (sec): 5.000000E-2
Scans to average: 100
Electric dark correction enabled: true
Nonlinearity correction enabled: false
Boxcar width: 0
XAxis mode: Wavelengths
Number of Pixels in Spectrum: 2068
>>>>>Begin Spectral Data<<<<<
199.712	842.64
200.181	-156.02
200.65	30.42
201.119	-11.47
201.587	107.61
202.056	106.44
202.525	115.36
202.993	124.9
203.462	122.92
203.93	110.19
204.399	120.53
204.867	107.95
205.336	112.29
205.804	113.37
206.273	107.9
206.741	98.36
207.21	101.01
207.678	106.74
208.146	104.95
208.615	105.36
209.083	105.36
209.551	114.12
210.02	110.22
210.488	111.41
210.956	119.34
211.424	114.74
211.893	122.08
212.361	114.23
212.829	104.18
213.297	120.59
213.765	110.67
214.233	114.93
214.701	113.28
215.169	104.21
215.637	117.15
216.105	106.25
216.573	131.26
217.041	107.22
217.509	111.41
217.977	133.58
218.445	115.14
218.913	122.39
219.381	115.33
219.848	115.95
220.316	123.15
220.784	121
221.252	110.49
221.719	115.46
222.187	113.97
222.655	115.88
223.122	117.34
223.59	122.47
224.058	125.31
224.525	106.55
224.993	112.17
225.46	122.35
225.928	111.49
226.395	124.46
226.863	118.53
227.33	122.24
227.798	123.89
228.265	125.74
228.732	113.24
229.2	102.29
229.667	119.4
230.134	114.08
230.602	107.48
231.069	125.79
231.536	116.12
232.003	108.73
232.47	124.44
232.938	109.68
233.405	114.02
233.872	114.29
234.339	112
234.806	113.57
235.273	115.94
235.74	121.74
236.207	117.54
236.674	122.25
237.141	121.23
237.608	109.2
238.075	110.99
238.542	100.04
239.009	118.55
239.476	116.38
239.942	123.7
240.409	114.72
240.876	111.77
241.343	114.39
241.809	119.02
242.276	135.64
242.743	106.92
243.21	113.3
243.676	111.58
244.143	128.66
244.609	124.27
245.076	117.16
245.542	109.73
246.009	110.69
246.476	120.55
246.942	114.52
247.408	106.93
247.875	116.68
248.341	117.14
248.808	115.98
249.274	119.34
249.74	122.9
250.207	131
250.673	117.98
251.139	127.72
251.606	120.15
252.072	131.9
252.538	115.09
253.004	115.59
253.47	124.02
253.936	122.92
254.403	124.99
254.869	121.39
255.335	113.03
255.801	117.39
256.267	110.74
256.733	122.16
257.199	124.48
257.665	108.7
258.131	107.12
258.596	124.23
259.062	125.82
259.528	114.83
259.994	112.22
260.46	116.59
260.926	107.58
261.391	107.86
261.857	121.8
262.323	119.52
262.789	116.22
263.254	126.97
263.72	114.2
264.185	116.87
264.651	124.7
265.117	119.72
265.582	123.24
266.048	122.24
266.513	114.33
266.979	113.7
267.444	111.76
267.91	111.97
268.375	113.36
268.84	96.4
269.306	120.78
269.771	111.95
270.236	113.27
270.702	128.63
271.167	110.92
271.632	124.5
272.098	116.77
272.563	112.77
273.028	111.47
273.493	109.96
273.958	119.73
274.423	114.67
274.888	125.87
275.353	109.71
275.819	110.7
276.284	109.32
276.749	118.58
277.214	128.11
277.678	129.33
278.143	109.43
278.608	116.02
279.073	115.39
279.538	123.76
280.003	112.15
280.468	122.25
280.932	115.04
281.397	118.94
281.862	121.14
282.327	112.73
282.791	124.82
283.256	113.88
283.721	115.24
284.185	121.12
284.65	119.85
285.114	115.55
285.579	113.77
286.044	118.58
286.508	108.1
286.973	122.44
287.437	128.7
287.901	111.15
288.366	134.4
288.83	118.66
289.295	123.19
289.759	104.96
290.223	122.29
290.687	118.72
291.152	129.6
291.616	118.64
292.08	120.36
292.544	118.98
293.009	120.54
293.473	136.02
293.937	124.96
294.401	116.41
294.865	130.21
295.329	121.01
295.793	107.04
296.257	111.46
296.721	111.79
297.185	120.76
297.649	107.56
298.113	113.68
298.577	114.21
299.041	116
299.505	127.47
299.968	106.17
300.432	130.17
300.896	120.45
301.36	130.45
301.823	126.29
302.287	109.16
302.751	113.77
303.214	109.68
303.678	121.89
304.142	119.15
304.605	107.38
305.069	126.88
305.532	135.11
305.996	125.25
306.459	121.47
306.923	126.82
307.386	109.24
307.85	109.53
308.313	111.32
308.776	112.14
309.24	117.47
309.703	118.82
310.166	126.03
310.63	116.64
311.093	113.81
311.556	129
312.019	110.3
312.482	111.54
312.946	115.97
313.409	121.13
313.872	111
314.335	120.98
314.798	115.03
315.261	130.33
315.724	106.9
316.187	123.72
316.65	109.98
317.113	107.44
317.576	121.77
318.039	117.36
318.502	127.62
318.964	111.41
319.427	116.78
319.89	111.73
320.353	127.12
320.816	110.54
321.278	121.35
321.741	115.16
322.204	112.13
322.666	116.07
323.129	114.14
323.592	120.78
324.054	114.32
324.517	118.09
324.979	104.96
325.442	109.95
325.904	116.39
326.367	125.98
326.829	109.13
327.292	124.57
327.754	103.85
328.216	110.39
328.679	115.43
329.141	113.72
329.603	130.09
330.066	117.82
330.528	113.33
330.99	109.94
331.452	121.44
331.914	113.77
332.377	117.08
332.839	112.15
333.301	118.26
333.763	125.92
334.225	115.22
334.687	108.77
335.149	123.13
335.611	104.15
336.073	109.4
336.535	118.39
336.997	121.62
337.459	110.91
337.92	124.23
338.382	123.24
338.844	127.11
339.306	118.03
339.768	111.05
340.229	130.52
340.691	116.31
341.153	123.07
341.614	111.99
342.076	101.81
342.538	107.91
342.999	112.16
343.461	116.38
343.922	128.03
344.384	120.48
344.845	116.58
345.307	109.21
345.768	149.59
346.23	116.18
346.691	104.11
347.153	125.01
347.614	111.88
348.075	106.63
348.536	112.81
348.998	113.13
349.459	117.15
349.92	149.8
350.381	112.33
350.843	126.24
351.304	116.27
351.765	129.13
352.226	99.7
352.687	111.22
353.148	109.33
353.609	122.7
354.07	118.04
354.531	119.21
354.992	111.28
355.453	116.98
355.914	125.76
356.375	128.83
356.836	109.41
357.297	110.58
357.757	111.19
358.218	105.78
358.679	109.55
359.14	116.04
359.6	112.59
360.061	126.49
360.522	115.51
360.982	114.98
361.443	110.77
361.904	110.18
362.364	119.31
362.825	124.13
363.285	130.61
363.746	128.2
364.206	124.46
364.667	114.01
365.127	115.92
365.588	120.22
366.048	120.37
366.508	124.36
366.969	110.41
367.429	121.14
367.889	122.74
368.349	116.41
368.81	117.81
369.27	121.66
369.73	127.27
370.19	110.81
370.65	121.51
371.11	115.39
371.57	120.75
372.031	125.9
372.491	135.51
372.951	117.74
373.411	135.04
373.871	119.82
374.33	130.44
374.79	106.06
375.25	124.13
375.71	146.84
376.17	120.34
376.63	125.44
377.09	140.71
377.549	122.21
378.009	115.87
378.469	131.91
378.928	132.57
379.388	112.6
379.848	134.98
380.307	137.37
380.767	143.01
381.227	125.32
381.686	139.98
382.146	162.53
382.605	149.55
383.065	152.36
383.524	138.43
383.983	166.16
384.443	151.81
384.902	144.96
385.361	161.03
385.821	143.19
386.28	170.23
386.739	167.78
387.199	161.32
387.658	172.54
388.117	152.9
388.576	166.76
389.035	170.34
389.494	157.48
389.954	175.13
390.413	176.71
390.872	164.17
391.331	193.57
391.79	181.07
392.249	180.62
392.708	177.75
393.166	189.04
393.625	197.69
394.084	208.06
394.543	185.96
395.002	208.01
395.461	198.29
395.919	198.28
396.378	196.42
396.837	211.21
397.296	204.87
397.754	229.96
398.213	216.15
398.672	245.22
399.13	229.46
399.589	217.47
400.047	221.38
400.506	220.86
400.964	223.88
401.423	207.67
401.881	220.63
402.34	223.27
402.798	227.45
403.256	230.48
403.715	231.74
404.173	231.56
404.631	221.07
405.09	238.27
405.548	219.65
406.006	232.22
406.464	236.16
406.923	244.21
407.381	235.59
407.839	235.42
408.297	260.11
408.755	249.06
409.213	241.04
409.671	231.37
410.129	258.05
410.587	270.29
411.045	255.73
411.503	261.5
411.961	251.96
412.419	258.4
412.876	260.27
413.334	247.91
413.792	252.01
414.25	267.23
414.708	267.87
415.165	278.33
415.623	290.82
416.081	274.49
416.538	300.06
416.996	285.42
417.454	297.21
417.911	300.84
418.369	304.64
418.826	315.01
419.284	292.78
419.741	303.29
420.199	308.77
420.656	339.84
421.113	335.37
421.571	325.17
422.028	336.86
422.485	337.31
422.943	361.46
423.4	350.33
423.857	352.55
424.314	358.6
424.772	369.96
425.229	381.22
425.686	384.73
426.143	385.34
426.6	410.41
427.057	408.56
427.514	406.45
427.971	427.74
428.428	434.23
428.885	440.32
429.342	450.63
429.799	473.78
430.256	463.48
430.713	488.23
431.17	478.26
431.627	489
432.083	507.1
432.54	502.78
432.997	514.32
433.454	528.6
433.91	534.78
434.367	555.17
434.824	570.84
435.28	573.3
435.737	584.63
436.193	592.44
436.65	604.21
437.106	619.07
437.563	632.61
438.019	655.43
438.476	664.69
438.932	671.73
439.388	682.29
439.845	698.94
440.301	703.95
440.757	712.08
441.214	729.23
441.67	740.09
442.126	748.84
442.582	751.96
443.039	777.81
443.495	775.14
443.951	793.24
444.407	794.66
444.863	830.03
445.319	838.16
445.775	836.88
446.231	870.42
446.687	877.32
447.143	895.05
447.599	915.78
448.055	937.53
448.511	947.61
448.967	953.59
449.422	977.44
449.878	991.12
450.334	992.12
450.79	1003.91
451.245	1021.81
451.701	1033.69
452.157	1046.38
452.612	1041.52
453.068	1054
453.524	1060.17
453.979	1083.71
454.435	1063.11
454.89	1088.07
455.346	1100.75
455.801	1103.47
456.257	1122.17
456.712	1122.22
457.168	1150.93
457.623	1169.3
458.078	1179.18
458.534	1189.94
458.989	1203.12
459.444	1233.68
459.899	1252.75
460.354	1328.02
460.81	1261.83
461.265	1295.1
461.72	1318.61
462.175	1346.31
462.63	1340.4
463.085	1369.5
463.54	1392.05
463.995	1419.08
464.45	1443.99
464.905	1469
465.36	1490.91
465.815	1497.37
466.27	1526.9
466.725	1543
467.18	1556.07
467.634	1563.94
468.089	1561.15
468.544	1587.91
468.999	1596.42
469.453	1610
469.908	1600.88
470.363	1594.94
470.817	1600.04
471.272	1609.58
471.726	1575.41
472.181	1567.96
472.635	1544.98
473.09	1546.41
473.544	1516
473.999	1495.39
474.453	1483.12
474.908	1488.79
475.362	1483.8
475.816	1476.4
476.271	1452.44
476.725	1442.76
477.179	1441.8
477.633	1455.39
478.087	1458.24
478.542	1469.03
478.996	1501.94
479.45	1496.41
479.904	1509.19
480.358	1515.07
480.812	1528.65
481.266	1529.73
481.72	1532.83
482.174	1535.43
482.628	1544.26
483.082	1552.85
483.536	1548.69
483.99	1548.19
484.444	1545.96
484.897	1534.04
485.351	1529.34
485.805	1515.57
486.259	1520.35
486.712	1538.24
487.166	1526.32
487.62	1529.52
488.073	1533.7
488.527	1538.78
488.981	1547.31
489.434	1553.08
489.888	1565.54
490.341	1572.62
490.795	1595.46
491.248	1595.09
491.701	1618.86
492.155	1608.18
492.608	1612.45
493.062	1604.8
493.515	1596.17
493.968	1593.04
494.421	1592.5
494.875	1578.28
495.328	1580.55
495.781	1586.82
496.234	1549.33
496.687	1546.34
497.14	1544.1
497.594	1536.92
498.047	1542.62
498.5	1533.25
498.953	1540.37
499.406	1537.69
499.859	1528.33
500.311	1549.25
500.764	1545.69
501.217	1548.25
501.67	1544.65
502.123	1554.84
502.576	1556.53
503.028	1574.94
503.481	1573.74
503.934	1568.54
504.387	1562.28
504.839	1566.39
505.292	1585.93
505.745	1578.61
506.197	1561.02
506.65	1587.79
507.102	1586.41
507.555	1585.99
508.007	1608.22
508.46	1583.86
508.912	1588.69
509.364	1602.03
509.817	1611.28
510.269	1608.59
510.721	1593.61
511.174	1600.22
511.626	1608.21
512.078	1623.53
512.531	1604.57
512.983	1614.88
513.435	1634.21
513.887	1625.54
514.339	1620.53
514.791	1625.01
515.243	1611.86
515.695	1603.63
516.147	1622.82
516.599	1617.72
517.051	1602.17
517.503	1611.84
517.955	1605.39
518.407	1607.72
518.859	1626.99
519.311	1593.71
519.762	1613.71
520.214	1599.78
520.666	1605.86
521.118	1604.11
521.569	1585.57
522.021	1599.12
522.473	1595.89
522.924	1573.99
523.376	1578.99
523.827	1585.28
524.279	1574.94
524.73	1560.23
525.182	1544.52
525.633	1557.15
526.085	1544.23
526.536	1550.61
526.987	1548.37
527.439	1534.09
527.89	1532.4
528.341	1515.68
528.793	1524.67
529.244	1510.74
529.695	1498.21
530.146	1502.4
530.597	1505.52
531.049	1482.36
531.5	1497.4
531.951	1490.33
532.402	1483.12
532.853	1477.78
533.304	1458.49
533.755	1476.87
534.206	1455.28
534.657	1470.79
535.108	1473.86
535.558	1442.83
536.009	1450.42
536.46	1443.81
536.911	1443.3
537.362	1455.31
537.812	1459.09
538.263	1449.6
538.714	1439.95
539.164	1440.89
539.615	1433.22
540.066	1450.53
540.516	1462.58
540.967	1465.91
541.417	1449.17
541.868	1445.37
542.318	1463.62
542.769	1463.33
543.219	1470.04
543.669	1471.65
544.12	1467.91
544.57	1501.82
545.02	1469.86
545.471	1500.8
545.921	1488.07
546.371	1488.15
546.821	1500.67
547.272	1512.44
547.722	1507.29
548.172	1530.41
548.622	1523.81
549.072	1524.79
549.522	1543.18
549.972	1544.05
550.422	1545.49
550.872	1558.98
551.322	1564.1
551.772	1566.55
552.222	1569.22
552.671	1583.86
553.121	1575.11
553.571	1615.37
554.021	1590.15
554.471	1602.59
554.92	1608.9
555.37	1618.68
555.82	1624.42
556.269	1617.13
556.719	1612.61
557.168	1608.61
557.618	1612.54
558.068	1615.44
558.517	1655
558.967	1635.57
559.416	1637.5
559.865	1637.94
560.315	1631.07
560.764	1604.9
561.213	1607.94
561.663	1619.26
562.112	1609.49
562.561	1619.21
563.011	1605.44
563.46	1607.46
563.909	1598.9
564.358	1606.89
564.807	1586.49
565.256	1592
565.705	1591.11
566.154	1608.82
566.603	1561.1
567.052	1566.72
567.501	1564.36
567.95	1559.75
568.399	1558.25
568.848	1549.73
569.297	1544.2
569.746	1526.73
570.195	1520.22
570.643	1526.24
571.092	1527.58
571.541	1515.5
571.989	1511.29
572.438	1487.43
572.887	1499.03
573.335	1502.01
573.784	1489.61
574.232	1487.55
574.681	1478.2
575.129	1485.38
575.578	1493.73
576.026	1484.74
576.475	1483.45
576.923	1493.13
577.372	1487.64
577.82	1493.89
578.268	1510.44
578.716	1507.37
579.165	1521.75
579.613	1536.38
580.061	1552.88
580.509	1557.02
580.957	1575.37
581.406	1587.07
581.854	1588.84
582.302	1613.67
582.75	1632.59
583.198	1639.12
583.646	1656.34
584.094	1659.51
584.542	1697.78
584.99	1683.2
585.437	1699.07
585.885	1720.78
586.333	1746.71
586.781	1745.25
587.229	1764.09
587.676	1774.22
588.124	1770.87
588.572	1794.28
589.019	1801.17
589.467	1800.92
589.915	1811.86
590.362	1808.74
590.81	1827.84
591.257	1827.57
591.705	1856.87
592.152	1833.45
592.6	1846.78
593.047	1845.08
593.494	1862.99
593.942	1852.66
594.389	1858.14
594.836	1845.04
595.284	1849.01
595.731	1867.86
596.178	1865.74
596.625	1872.88
597.072	1850.57
597.52	1864.82
597.967	1856.72
598.414	1865.93
598.861	1867.26
599.308	1858.82
599.755	1878.2
600.202	1869.89
600.649	1869.21
601.096	1864.68
601.543	1856.78
601.989	1868.75
602.436	1871.54
602.883	1871.74
603.33	1867.17
603.777	1869.8
604.223	1869.14
604.67	1880.57
605.117	1870.01
605.563	1864.08
606.01	1871.05
606.456	1867.45
606.903	1864.43
607.35	1872.82
607.796	1870.43
608.243	1877.37
608.689	1871.96
609.135	1884.45
609.582	1865.43
610.028	1877.74
610.474	1873
610.921	1879.38
611.367	1861.33
611.813	1878.84
612.26	1869.96
612.706	1882.16
613.152	1888.13
613.598	1899.03
614.044	1884.01
614.49	1889.63
614.936	1898.11
615.382	1882.43
615.828	1884.66
616.274	1893.7
616.72	1871.32
617.166	1872.17
617.612	1885.64
618.058	1895.01
618.504	1892.16
618.95	1872.47
619.395	1890.76
619.841	1905.64
620.287	1871.19
620.733	1873.72
621.178	1870.45
621.624	1869.78
622.069	1866.68
622.515	1863.62
622.961	1854.93
623.406	1870.87
623.852	1856.47
624.297	1844.16
624.743	1855.55
625.188	1844.05
625.633	1829.28
626.079	1818.84
626.524	1834.82
626.969	1838.71
627.415	1820.51
627.86	1812.63
628.305	1822.12
628.75	1829.2
629.196	1799.28
629.641	1803.82
630.086	1794.74
630.531	1803.2
630.976	1796.44
631.421	1792.95
631.866	1802.61
632.311	1779.95
632.756	1806.11
633.201	1776.01
633.646	1782.83
634.091	1778.28
634.535	1775.95
634.98	1815.71
635.425	1765.43
635.87	1774.88
636.314	1758.3
636.759	1767.33
637.204	1763.61
637.648	1759.97
638.093	1758.07
638.538	1752.41
638.982	1732.99
639.427	1732.03
639.871	1753.09
640.316	1745.96
640.76	1736.44
641.205	1735.57
641.649	1741.78
642.093	1735.07
642.538	1751.11
642.982	1772.65
643.426	1740.75
643.87	1767.11
644.315	1738.18
644.759	1748.19
645.203	1757.88
645.647	1758.43
646.091	1745.8
646.535	1762.57
646.979	1763.51
647.423	1756.25
647.867	1764.79
648.311	1760.8
648.755	1755.89
649.199	1759.41
649.643	1749.21
650.087	1741.28
650.531	1732.55
650.975	1747.95
651.418	1727.26
651.862	1747.78
652.306	1738.39
652.75	1709.15
653.193	1727.07
653.637	1700.2
654.08	1706.54
654.524	1686.03
654.968	1684.33
655.411	1674.59
655.855	1676.12
656.298	1666.69
656.741	1677.93
657.185	1677.5
657.628	1671.78
658.072	1673.87
658.515	1655.57
658.958	1655.18
659.401	1678.32
659.845	1670.96
660.288	1662.59
660.731	1651.74
661.174	1668.61
661.617	1667.75
662.06	1675.59
662.504	1674.76
662.947	1668.78
663.39	1667.78
663.833	1683.08
664.276	1688.62
664.718	1682.38
665.161	1693.19
665.604	1675.8
666.047	1687.74
666.49	1685.33
666.933	1685.57
667.375	1691.86
667.818	1688.96
668.261	1695.36
668.703	1687.28
669.146	1686.42
669.589	1696.69
670.031	1692.44
670.474	1701.37
670.916	1700.99
671.359	1694.39
671.801	1689.14
672.244	1691.2
672.686	1693.92
673.129	1697.05
673.571	1696.9
674.013	1709.41
674.456	1698.69
674.898	1699.68
675.34	1704.87
675.782	1698.61
676.224	1710.49
676.667	1684.53
677.109	1703.53
677.551	1709.53
677.993	1713.34
678.435	1696.49
678.877	1729.37
679.319	1722.83
679.761	1741.07
680.203	1749.49
680.645	1755.42
681.087	1758.79
681.529	1764.36
681.97	1786.78
682.412	1788.61
682.854	1794.83
683.296	1802.57
683.737	1784.45
684.179	1798.46
684.621	1814.09
685.062	1805.2
685.504	1799.79
685.945	1803.41
686.387	1808
686.828	1804.33
687.27	1795.11
687.711	1800.29
688.153	1786.84
688.594	1812.09
689.035	1770.82
689.477	1767.12
689.918	1767.68
690.359	1751.53
690.801	1748.63
691.242	1737.87
691.683	1730.11
692.124	1711.37
692.565	1708.28
693.006	1703.16
693.447	1690.3
693.889	1667.95
694.33	1658.59
694.771	1642.5
695.211	1656.21
695.652	1634.49
696.093	1624.2
696.534	1623.46
696.975	1606.28
697.416	1605.03
697.857	1605.29
698.297	1599.43
698.738	1594.72
699.179	1595.13
699.619	1584.04
700.06	1582.34
700.501	1596.38
700.941	1576.86
701.382	1560.19
701.822	1568.92
702.263	1574.82
702.703	1564.1
703.144	1568.24
703.584	1565.49
704.025	1571.32
704.465	1547.43
704.905	1567.76
705.346	1570.4
705.786	1571.36
706.226	1582.99
706.666	1584.66
707.106	1587.78
707.547	1590.53
707.987	1600.78
708.427	1618.72
708.867	1628.04
709.307	1648.26
709.747	1651.08
710.187	1648.69
710.627	1676.4
711.067	1674.76
711.507	1685.87
711.947	1683.38
712.386	1685.43
712.826	1689.26
713.266	1689.88
713.706	1693.24
714.145	1694.75
714.585	1692.22
715.025	1736.72
715.464	1677.32
715.904	1679.8
716.344	1652.37
716.783	1668.34
717.223	1642.74
717.662	1633.86
718.102	1631.68
718.541	1615.99
718.98	1591.22
719.42	1592.57
719.859	1585.36
720.298	1579.58
720.738	1575.94
721.177	1567.07
721.616	1557.51
722.055	1546.95
722.495	1552.03
722.934	1551.79
723.373	1536.92
723.812	1554.64
724.251	1546.87
724.69	1545.36
725.129	1547.91
725.568	1565.55
726.007	1582.53
726.446	1585.92
726.885	1613.43
727.323	1614.11
727.762	1622.68
728.201	1625.86
728.64	1644.37
729.079	1670.54
729.517	1686.37
729.956	1689.71
730.395	1710.36
730.833	1722.51
731.272	1733.74
731.71	1734.66
732.149	1739.19
732.587	1735.32
733.026	1718.91
733.464	1742.28
733.903	1722.74
734.341	1711.44
734.779	1699.61
735.218	1685.16
735.656	1676.76
736.094	1670.39
736.532	1658.49
736.971	1652.97
737.409	1630.61
737.847	1640.11
738.285	1634.88
738.723	1638.05
739.161	1632.7
739.599	1623.63
740.037	1662.03
740.475	1619.16
740.913	1630.34
741.351	1615.38
741.789	1624.49
742.227	1610.65
742.665	1619.58
743.102	1614.24
743.54	1607.66
743.978	1610.78
744.416	1591.99
744.853	1591.65
745.291	1579.65
745.729	1575.45
746.166	1574.4
746.604	1569.71
747.041	1567.89
747.479	1570.5
747.916	1562.08
748.354	1562.26
748.791	1560.39
749.228	1550.21
749.666	1543.06
750.103	1551.95
750.54	1541.57
750.978	1532.62
751.415	1532.51
751.852	1541.62
752.289	1535.13
752.726	1522.01
753.164	1512.61
753.601	1510.46
754.038	1510.29
754.475	1510.88
754.912	1502.89
755.349	1505.07
755.786	1489.58
756.223	1496.49
756.659	1507.49
757.096	1515.96
757.533	1519.97
757.97	1522.99
758.407	1530.99
758.843	1561.43
759.28	1584.63
759.717	1631
760.153	1699.14
760.59	1765.12
761.027	1836.82
761.463	1924.07
761.9	1966.47
762.336	2013.68
762.773	2045.17
763.209	2065.64
763.646	2067.78
764.082	2067.79
764.518	2079
764.955	2069.21
765.391	2040.43
765.827	2006.01
766.263	1966.72
766.7	1927.53
767.136	1810.74
767.572	1746.25
768.008	1677.11
768.444	1607.93
768.88	1537.67
769.316	1499.51
769.752	1450.06
770.188	1403.99
770.624	1388.55
771.06	1366.53
771.496	1355.69
771.932	1334.12
772.367	1303.55
772.803	1311.78
773.239	1282.48
773.675	1275.62
774.11	1275.16
774.546	1269.49
774.982	1243.44
775.417	1241.9
775.853	1225.89
776.288	1229.32
776.724	1219.98
777.159	1204.1
777.595	1198.35
778.03	1182.68
778.466	1196.26
778.901	1179.35
779.336	1189.72
779.772	1192.09
780.207	1182.59
780.642	1215.07
781.077	1176.87
781.513	1191.98
781.948	1178.97
782.383	1197.47
782.818	1178.51
783.253	1177.72
783.688	1184.62
784.123	1198.15
784.558	1212.86
784.993	1225.13
785.428	1230.23
785.863	1237.65
786.298	1250.44
786.733	1268.11
787.167	1298.37
787.602	1280.73
788.037	1308.86
788.472	1309.59
788.906	1320.63
789.341	1325.32
789.776	1336.69
790.21	1341.41
790.645	1319.81
791.079	1332.65
791.514	1309.53
791.948	1309.27
792.383	1286.35
792.817	1307.15
793.252	1282.85
793.686	1271.95
794.12	1282.88
794.554	1274.21
794.989	1273.72
795.423	1278.7
795.857	1264.4
796.291	1270.34
796.725	1280.61
797.16	1276.58
797.594	1301.19
798.028	1279.23
798.462	1287.1
798.896	1283.6
799.33	1274.04
799.764	1277.59
800.198	1273.44
800.631	1266.85
801.065	1255.17
801.499	1238.94
801.933	1229.21
802.367	1266.86
802.8	1218.52
803.234	1198.64
803.668	1226.65
804.101	1189.97
804.535	1195.99
804.968	1183.28
805.402	1193.29
805.835	1210.84
806.269	1195.77
806.702	1200.04
807.136	1200.42
807.569	1202.15
808.003	1221.83
808.436	1221.54
808.869	1226.2
809.302	1229.15
809.736	1240.47
810.169	1256.18
810.602	1265.46
811.035	1264.63
811.468	1291.15
811.901	1311.82
812.335	1332.95
812.768	1344.96
813.201	1360.56
813.633	1395.93
814.066	1429.43
814.499	1475.67
814.932	1508.35
815.365	1560.57
815.798	1649.57
816.231	1714.29
816.663	1825.19
817.096	1950.41
817.529	2109.32
817.961	2342.94
818.394	2639.39
818.827	3086.84
819.259	3676.21
819.692	4331.49
820.124	4976.49
820.557	5551.43
820.989	6048.02
821.422	6430.44
821.854	6773.9
822.286	7014.2
822.719	7222
823.151	7402.26
823.583	7564.77
824.016	7689.84
824.448	7789.67
824.88	7759.67
825.312	7560.7
825.744	7238.4
826.176	6781.1
826.608	6304.92
827.04	5863.06
827.472	5434.32
827.904	5058.97
828.336	4731.24
828.768	4454.03
829.2	4203.24
829.632	3998.96
830.064	3813.01
830.495	3635.67
830.927	3482.04
831.359	3370.15
831.791	3272.91
832.222	3187.32
832.654	3103.88
833.086	3020.22
833.517	2980.78
833.949	2939.69
834.38	2864.47
834.812	2798.45
835.243	2738.87
835.674	2662.04
836.106	2577.16
836.537	2500.78
836.969	2412.33
837.4	2305.11
837.831	2210.15
838.262	2130.61
838.693	2010.86
839.125	1939.82
839.556	1848
839.987	1790.05
840.418	1730.09
840.849	1680.83
841.28	1631.25
841.711	1570.18
842.142	1519.56
842.573	1483.18
843.004	1412.24
843.435	1321.19
843.865	1259.8
844.296	1184.38
844.727	1125.78
845.158	1054.34
845.589	1026.6
846.019	973.14
846.45	945.93
846.88	924.69
847.311	908.76
847.742	886.07
848.172	875.67
848.603	862.91
849.033	863.36
849.464	864.35
849.894	835.39
850.324	845.03
850.755	823.3
851.185	815.75
851.615	802.5
852.045	812.33
852.476	805.54
852.906	804.96
853.336	814.39
853.766	806
854.196	805.71
854.626	809.28
855.056	824.87
855.486	821.03
855.916	820.51
856.346	838.68
856.776	838.09
857.206	839.58
857.636	836.04
858.066	837.99
858.495	846.42
858.925	847.09
859.355	860.07
859.785	865.87
860.214	873.28
860.644	862.06
861.074	902.27
861.503	897.57
861.933	898.22
862.362	914.85
862.792	928.46
863.221	941.37
863.651	961.03
864.08	966.22
864.509	984.52
864.939	997.57
865.368	1014.6
865.797	1044.22
866.226	1059.42
866.656	1098.2
867.085	1112.66
867.514	1132.08
867.943	1148.67
868.372	1167.6
868.801	1193.61
869.23	1238.31
869.659	1270.29
870.088	1297.36
870.517	1317.99
870.946	1361.03
871.375	1394.45
871.804	1449.61
872.232	1477.7
872.661	1516.83
873.09	1584.87
873.519	1653.36
873.947	1693.71
874.376	1771.26
874.804	1856.57
875.233	1982.8
875.662	2095.22
876.09	2261.62
876.519	2483.72
876.947	2780.86
877.375	3197.11
877.804	3687.66
878.232	4207.17
878.66	4773
879.089	5345.08
879.517	5842.51
879.945	6273.68
880.373	6618.38
880.802	6896.89
881.23	7077.74
881.658	7194.06
882.086	7280.27
882.514	7233.1
882.942	7137.99
883.37	6947.43
883.798	6629.01
884.226	6246.15
884.654	5801.75
885.082	5309.35
885.51	4845.59
885.937	4407.9
886.365	4008.01
886.793	3658.74
887.221	3366.86
887.648	3123
888.076	2927.37
888.503	2777.86
888.931	2669.05
889.359	2585
889.786	2569.07
890.214	2552.08
890.641	2625.64
891.068	2737.3
891.496	2872.42
891.923	3035.54
892.351	3183.82
892.778	3303.21
893.205	3376.42
893.632	3446.66
894.06	3499.78
894.487	3513.99
894.914	3542.36
895.341	3505.33
895.768	3454.93
896.195	3412.69
896.622	3315.11
897.049	3222.97
897.476	3097.05
897.903	2914.96
898.33	2765.24
898.757	2616.55
899.184	2524.57
899.61	2456.86
900.037	2485.96
900.464	2594.67
900.891	2786.76
901.317	2991.11
901.744	3171.82
902.17	3299.86
902.597	3378.78
903.024	3458.79
903.45	3485.44
903.877	3485.88
904.303	3494.75
904.729	3451.74
905.156	3383.03
905.582	3349.87
906.008	3224.62
906.435	3098.44
906.861	2904.89
907.287	2665.61
907.713	2439.58
908.14	2246.82
908.566	2091.89
908.992	1977.71
909.418	1914.15
909.844	1881.3
910.27	1908.86
910.696	1979.36
911.122	2084.29
911.548	2247.84
911.974	2511.53
912.4	2786.7
912.825	3098.46
913.251	3379.93
913.677	3618.22
914.103	3818.74
914.528	3968.42
914.954	4064.04
915.38	4151.65
915.805	4190.82
916.231	4195.1
916.656	4159.4
917.082	4090.46
917.507	3972.91
917.933	3802.83
918.358	3580.88
918.784	3324.29
919.209	3034.66
919.634	2773.57
920.059	2542.3
920.485	2376.2
920.91	2158.49
921.335	2027.5
921.76	1875.03
922.185	1775.38
922.61	1678.05
923.036	1598.89
923.461	1529.23
923.886	1462.27
924.31	1388.76
924.735	1351.45
925.16	1308.46
925.585	1268.55
926.01	1232.27
926.435	1209.64
926.86	1183.89
927.284	1166.17
927.709	1141.55
928.134	1120.31
928.558	1112.12
928.983	1102.03
929.408	1093.3
929.832	1104.91
930.257	1094.13
930.681	1104.53
931.106	1114.91
931.53	1119.79
931.954	1129.04
932.379	1145.85
932.803	1159.76
933.227	1220.74
933.652	1202.59
934.076	1245.52
934.5	1293.24
934.924	1331.03
935.348	1381.81
935.772	1407.33
936.197	1460.98
936.621	1497.69
937.045	1554.05
937.469	1567.64
937.893	1606.66
938.316	1636.14
938.74	1650.37
939.164	1658.61
939.588	1681.01
940.012	1670.72
940.436	1678.16
940.859	1653.71
941.283	1651.78
941.707	1639.78
942.13	1635.67
942.554	1619.92
942.977	1593.72
943.401	1568.33
943.824	1579.44
944.248	1573.69
944.671	1550.02
945.095	1576.34
945.518	1559.03
945.941	1559.34
946.365	1572.04
946.788	1569.67
947.211	1580.05
947.634	1580.75
948.058	1586.3
948.481	1592.86
948.904	1585.78
949.327	1560.73
949.75	1555.21
950.173	1552.18
950.596	1525.09
951.019	1501.33
951.442	1476.26
951.865	1424.32
952.288	1403.39
952.71	1368.4
953.133	1297.64
953.556	1275.15
953.979	1218.19
954.401	1185.69
954.824	1136.42
955.247	1092.7
955.669	1042.68
956.092	1011.99
956.514	964.62
956.937	937.61
957.359	927.5
957.782	886.99
958.204	847.67
958.627	853.84
959.049	821.99
959.471	807.24
959.893	796.63
960.316	801.48
960.738	764.8
961.16	757.84
961.582	761.31
962.004	743.51
962.426	761.36
962.848	765.25
963.27	747.17
963.692	752.48
964.114	760.2
964.536	778.19
964.958	777.34
965.38	794.39
965.802	809.25
966.224	829.63
966.645	851.61
967.067	860.91
967.489	877.91
967.911	899.62
968.332	911.98
968.754	939.07
969.175	933.65
969.597	953.24
970.018	963.72
970.44	1002.96
970.861	1011.95
971.283	1010.89
971.704	1032.18
972.125	1036
972.547	1053.49
972.968	1088.68
973.389	1115.81
973.81	1167.14
974.232	1201.8
974.653	1293.44
975.074	1397.84
975.495	1505.36
975.916	1682.2
976.337	1805.55
976.758	1914.4
977.179	2006.79
977.6	2082.17
978.021	2107.62
978.442	2143.21
978.862	2148.82
979.283	2116.64
979.704	2086.63
980.125	2060.58
980.545	1981.9
980.966	1905.4
981.387	1798.66
981.807	1670.78
982.228	1522.7
982.648	1390.76
983.069	1293.96
983.489	1197.36
983.91	1118.29
984.33	1078.14
984.75	1044.7
985.171	1031.42
985.591	1029.02
986.011	1046.9
986.431	1072.58
986.852	1111.37
987.272	1194.45
987.692	1271.87
988.112	1388.73
988.532	1504.69
988.952	1630.8
989.372	1729.78
989.792	1812.49
990.212	1898.86
990.632	1938.64
991.052	1962.53
991.472	2001.39
991.892	1975.2
992.311	1945.65
992.731	1912.41
993.151	1868.57
993.57	1799.45
993.99	1723.39
994.41	1605.64
994.829	1481.4
995.249	1362.67
995.668	1264.6
996.088	1135.95
996.507	1058.59
996.927	996.61
997.346	929.46
997.765	873.42
998.185	846.16
998.604	791.81
999.023	747.07
999.442	706.11
999.862	693.57
1000.281	676.29
1000.7	657.3
1001.119	625.82
1001.538	622.64
1001.957	600.89
1002.376	608.23
1002.795	590.02
1003.214	562.1
1003.633	570.52
1004.052	554.75
1004.471	546.96
1004.889	542.23
1005.308	548.31
1005.727	531.47
1006.146	559.12
1006.564	525.33
1006.983	539.44
1007.401	547.74
1007.82	536.93
1008.238	544.75
1008.657	547.62
1009.075	554.5
1009.494	544.84
1009.912	574.51
1010.331	564.69
1010.749	550.77
1011.167	568
1011.586	554.62
1012.004	554.03
1012.422	549.71
1012.84	546.84
1013.258	562.78
1013.676	532.48
1014.094	516.85
1014.512	481.49
1014.93	488.5
1015.348	479.8
1015.766	464.11
1016.184	458.66
1016.602	446.16
1017.02	436.83
1017.438	414.53
1017.856	396.09
1018.273	404.77
1018.691	391.35
1019.109	378.39
1019.526	389.68
1019.944	368.62
1020.361	355.09
1020.779	344.64
1021.197	349.34
1021.614	336.75
1022.031	339.36
1022.449	324.73
1022.866	322.71
1023.284	318.62
1023.701	324.85
1024.118	309.12
1024.535	306.51
1024.953	292.63
1025.37	314.05
1025.787	277.64
1026.204	298.83
1026.621	294.78
1027.038	291.27
1027.455	279.85
1027.872	284.89
1028.289	279.23
1028.706	278.23
1029.123	271.14
1029.54	269.31
1029.956	259.42
1030.373	279.2
1030.79	261.82
1031.207	270.77
1031.623	273.03
1032.04	269.25
1032.457	249.79
1032.873	264.35
1033.29	259.33
1033.706	250.61
1034.123	263.78
1034.539	248.17
1034.956	237.34
1035.372	233.87
1035.788	240.45
1036.205	241.15
1036.621	237.3
1037.037	244.9
1037.453	238.13
1037.87	246.79
1038.286	241.06
1038.702	221.87
1039.118	224.35
1039.534	248.63
1039.95	223.35
1040.366	218.38
1040.782	242.7
1041.198	230.33
1041.614	225.68
1042.029	227.87
1042.445	220.38
1042.861	206.02
1043.277	237.17
1043.693	215.73
1044.108	219.27
1044.524	223.13
1044.939	244.09
1045.355	231.24
1045.771	219.53
1046.186	210.64
1046.602	209.84
1047.017	213.13
1047.432	219.12
1047.848	223.07
1048.263	223.97
1048.678	213.28
1049.094	226.55
1049.509	220.78
1049.924	213.14
1050.339	218.61
1050.754	214.79
1051.17	223.68
1051.585	202.99
1052	209.27
1052.415	211.19
1052.83	202.95
1053.245	224.41
1053.66	213.59
1054.074	215.97
1054.489	218.72
1054.904	197.76
1055.319	221.89
1055.734	195.92
1056.148	196.49
1056.563	192.53
1056.978	196.39
1057.392	192.19
1057.807	177.63
1058.221	181.55
1058.636	198.51
1059.05	186.71
1059.465	182.03
1059.879	184.46
1060.293	184.97
1060.708	188.48
1061.122	168.92
1061.536	189.3
1061.951	182.64
1062.365	171.77
1062.779	168.19
1063.193	191.96
1063.607	165.48
1064.021	161.13
1064.435	166.03
1064.849	165.72
1065.263	165.54
1065.677	169.39
1066.091	173.67
1066.505	180.55
1066.919	162.93
1067.333	165.01
1067.746	188.42
1068.16	164.76
1068.574	168.81
1068.987	169.5
1069.401	170.77
1069.815	158.95
1070.228	160.3
1070.642	165.58
1071.055	153.73
1071.469	157.82
1071.882	161.78
1072.296	168.23
1072.709	160.93
1073.122	159.41
1073.536	155.6
1073.949	153.77
1074.362	164.97
1074.775	171.92
1075.188	166.61
1075.601	169.23
1076.015	163.21
1076.428	158.47
1076.841	153.66
1077.254	174.17
1077.667	163.35
1078.079	169.31
1078.492	165.25
1078.905	158.32
1079.318	171.09
1079.731	158.32
1080.144	178.68
1080.556	165.77
1080.969	166.16
1081.382	162.71
1081.794	167.65
1082.207	164.82
1082.619	172.47
1083.032	153.28
1083.444	156.26
1083.857	157.09
1084.269	156.3
1084.682	156.93
1085.094	156.09
1085.506	162.63
1085.918	155.75
1086.331	152.18
1086.743	148.46
1087.155	157.4
1087.567	158.06
1087.979	146.21
1088.391	145.23
1088.803	151.89
1089.215	140.47
1089.627	147.32
1090.039	143.9
1090.451	148.88
1090.863	148.54
1091.275	142.85
1091.687	144.8
1092.098	134.26
1092.51	135.32
1092.922	142.72
1093.334	136.07
1093.745	128.29
1094.157	140.73
1094.568	136.5
1094.98	124.1
1095.391	122.75
1095.803	132.02
1096.214	130.26
1096.626	126.61
1097.037	125.25
1097.448	127.44
1097.86	130.35
1098.271	126.47
1098.682	117.7
1099.093	124.3
1099.504	113.52
1099.916	121.08
1100.327	122.83
1100.738	126.94
1101.149	118.84
1101.56	112.59
1101.971	140.48
1102.381	120.44
1102.792	122.79
1103.203	121.43
1103.614	115.49
1104.025	112.95
1104.436	117.77
1104.846	124.43
1105.257	151.02
1105.668	116.26
1106.078	117.88
1106.489	114.95
1106.899	109.4
1107.31	114.13
1107.72	112.15
1108.131	120.48
1108.541	114.26
1108.951	124.65
1109.362	117.9
1109.772	113.93
1110.182	108.18
1110.592	128.71
1111.003	-5.57
1111.413	-2.91
1111.823	-4.74
1112.233	-5.76
