Data from R_3_B_MAYP1165941__1__20-12-22-918.txt Node

Date: Wed May 31 20:12:22 JST 2023
User: takis
Spectrometer: MAYP116594
Trigger mode: 0
Integration Time (sec): 5.000000E-2
Scans to average: 100
Electric dark correction enabled: true
Nonlinearity correction enabled: false
Boxcar width: 0
XAxis mode: Wavelengths
Number of Pixels in Spectrum: 2068
>>>>>Begin Spectral Data<<<<<
199.712	845.49
200.181	-156.76
200.65	30.9
201.119	-10.76
201.587	119.69
202.056	119.4
202.525	133.02
202.993	147.6
203.462	144.27
203.93	131.64
204.399	141.01
204.867	130.27
205.336	133.4
205.804	133.86
206.273	129.04
206.741	117.87
207.21	122.46
207.678	127.84
208.146	125.13
208.615	126.82
209.083	124.31
209.551	134.74
210.02	129.94
210.488	133.29
210.956	139.12
211.424	136.38
211.893	143.67
212.361	134.72
212.829	123.84
213.297	141.29
213.765	132.23
214.233	133.68
214.701	133.4
215.169	123.52
215.637	134.95
216.105	125.1
216.573	152.19
217.041	126.55
217.509	131.09
217.977	156.12
218.445	134.61
218.913	143.37
219.381	135.06
219.848	135.96
220.316	143.41
220.784	141.15
221.252	128.79
221.719	135.49
222.187	131.06
222.655	133.25
223.122	137.34
223.59	142.4
224.058	144.18
224.525	123.64
224.993	130.36
225.46	139.3
225.928	130.57
226.395	145.06
226.863	137.59
227.33	141.32
227.798	143.61
228.265	144.59
228.732	132.74
229.2	121.01
229.667	138.09
230.134	132.85
230.602	125.11
231.069	145.64
231.536	136.46
232.003	127.53
232.47	143.51
232.938	128.39
233.405	133.17
233.872	131.06
234.339	130.46
234.806	132
235.273	136.48
235.74	139.79
236.207	136.15
236.674	140.41
237.141	140.38
237.608	129.44
238.075	129.14
238.542	119.46
239.009	134.39
239.476	134.33
239.942	143.04
240.409	132.35
240.876	128.06
241.343	134.32
241.809	137.22
242.276	156.57
242.743	124.35
243.21	132.75
243.676	128.83
244.143	144.62
244.609	142.35
245.076	133.99
245.542	125.7
246.009	128.17
246.476	138.93
246.942	133.02
247.408	123.68
247.875	135.09
248.341	135.78
248.808	132.92
249.274	136.04
249.74	138.96
250.207	147.97
250.673	136.79
251.139	145.72
251.606	136.83
252.072	149.79
252.538	133
253.004	134.23
253.47	141.39
253.936	139.62
254.403	143.47
254.869	137.84
255.335	131.31
255.801	133.24
256.267	127.98
256.733	139.04
257.199	140.5
257.665	126.14
258.131	123.96
258.596	142.47
259.062	145.03
259.528	130.85
259.994	130.08
260.46	133.77
260.926	123.09
261.391	124.25
261.857	140.87
262.323	137.95
262.789	134.44
263.254	143.55
263.72	131.95
264.185	135.69
264.651	142.13
265.117	138.17
265.582	139.57
266.048	141.12
266.513	131.69
266.979	131.62
267.444	127.7
267.91	129.16
268.375	132.52
268.84	112.15
269.306	139.37
269.771	128.58
270.236	130.35
270.702	145.28
271.167	127.34
271.632	141.55
272.098	135.3
272.563	132.06
273.028	127.05
273.493	125.08
273.958	135.21
274.423	131.57
274.888	143.82
275.353	124.92
275.819	126.16
276.284	126.52
276.749	136.63
277.214	145.93
277.678	147.77
278.143	124.98
278.608	132.07
279.073	133.7
279.538	141.52
280.003	128.05
280.468	140.04
280.932	131.84
281.397	136.37
281.862	139.37
282.327	128.79
282.791	141.14
283.256	128.84
283.721	132.28
284.185	137.23
284.65	135.79
285.114	130.7
285.579	129.63
286.044	133.89
286.508	122.75
286.973	138.24
287.437	144.5
287.901	126.97
288.366	152.21
288.83	135.33
289.295	139.38
289.759	119.67
290.223	139.89
290.687	135.43
291.152	146.8
291.616	135.63
292.08	136.44
292.544	135.29
293.009	138.46
293.473	154.54
293.937	142.32
294.401	134.83
294.865	147.01
295.329	136.99
295.793	124.6
296.257	128.21
296.721	128.69
297.185	135.69
297.649	124.33
298.113	130.17
298.577	129.92
299.041	131.32
299.505	144.13
299.968	122.68
300.432	147.3
300.896	137.17
301.36	147.46
301.823	143.6
302.287	124.23
302.751	130.65
303.214	125.59
303.678	138.88
304.142	132.66
304.605	123.01
305.069	144.25
305.532	149.81
305.996	142.45
306.459	139.21
306.923	144.5
307.386	124.87
307.85	123.09
308.313	127.05
308.776	128.09
309.24	133.39
309.703	134.42
310.166	143.1
310.63	132.06
311.093	130.37
311.556	145.23
312.019	125.43
312.482	127.62
312.946	131.91
313.409	138.14
313.872	126.45
314.335	138.6
314.798	132.31
315.261	147.97
315.724	123.58
316.187	138.97
316.65	126.84
317.113	122.8
317.576	138.19
318.039	133.42
318.502	144.63
318.964	127.06
319.427	133.33
319.89	127.67
320.353	144.26
320.816	127.11
321.278	138.96
321.741	132.26
322.204	129.21
322.666	132.35
323.129	129.34
323.592	136.32
324.054	130.83
324.517	132.75
324.979	121.55
325.442	128.09
325.904	133.39
326.367	143.8
326.829	125.25
327.292	141.79
327.754	118.42
328.216	127.34
328.679	133.46
329.141	130.93
329.603	148.07
330.066	136.39
330.528	130.02
330.99	126.11
331.452	138.56
331.914	130.43
332.377	135.46
332.839	127.91
333.301	134.13
333.763	146.26
334.225	130.89
334.687	123.91
335.149	140.96
335.611	119.14
336.073	125.67
336.535	137.15
336.997	139.2
337.459	127.11
337.92	142.67
338.382	139.47
338.844	144.96
339.306	136.02
339.768	128.77
340.229	147.19
340.691	133.33
341.153	140.24
341.614	128.08
342.076	119.75
342.538	123.47
342.999	130.27
343.461	133.22
343.922	144.54
344.384	138.01
344.845	132.37
345.307	126.3
345.768	168.12
346.23	134.66
346.691	120.64
347.153	142.67
347.614	130.15
348.075	124.41
348.536	131.33
348.998	129.41
349.459	136.26
349.92	168.59
350.381	132.58
350.843	146.46
351.304	133.3
351.765	146.78
352.226	116.95
352.687	127.6
353.148	126.71
353.609	142.91
354.07	136.84
354.531	137.62
354.992	128.38
355.453	135.45
355.914	145.11
356.375	147.21
356.836	126.1
357.297	130.8
357.757	130.97
358.218	123.57
358.679	127.45
359.14	134.41
359.6	129.78
360.061	144.11
360.522	131.77
360.982	136.54
361.443	131.19
361.904	129.71
362.364	138.95
362.825	145.59
363.285	150.19
363.746	150.51
364.206	144.69
364.667	132.96
365.127	135.68
365.588	140.53
366.048	141.46
366.508	144.27
366.969	133.27
367.429	143.11
367.889	147.07
368.349	136.55
368.81	140.15
369.27	147.17
369.73	151.81
370.19	135.89
370.65	148.19
371.11	144.91
371.57	150.61
372.031	157.98
372.491	172.86
372.951	155.22
373.411	173.93
373.871	161.06
374.33	176.68
374.79	154.27
375.25	176.92
375.71	203.82
376.17	182
376.63	191.23
377.09	211.18
377.549	194.79
378.009	194.62
378.469	217.12
378.928	222
379.388	206.88
379.848	235.77
380.307	247.13
380.767	257.02
381.227	249.55
381.686	270.92
382.146	300.85
382.605	295.89
383.065	309.39
383.524	299.97
383.983	341.08
384.443	336.4
384.902	336.57
385.361	361.31
385.821	352.97
386.28	395.76
386.739	405.26
387.199	411.9
387.658	438.73
388.117	433.43
388.576	457.85
389.035	478.32
389.494	479.4
389.954	512.93
390.413	532.25
390.872	539.45
391.331	586.94
391.79	593.77
392.249	613.58
392.708	627.92
393.166	663.79
393.625	692.94
394.084	726.25
394.543	727.1
395.002	773.2
395.461	790.49
395.919	817.34
396.378	835.77
396.837	876.38
397.296	892.14
397.754	944.18
398.213	956.41
398.672	1012.44
399.13	1020.03
399.589	1034.29
400.047	1066.18
400.506	1089.59
400.964	1119.22
401.423	1122.35
401.881	1166.26
402.34	1194.94
402.798	1223.49
403.256	1256.91
403.715	1286.68
404.173	1308.72
404.631	1326.89
405.09	1375.14
405.548	1384.51
406.006	1423.08
406.464	1454.14
406.923	1489.44
407.381	1515.25
407.839	1538.87
408.297	1592.14
408.755	1609.55
409.213	1630.2
409.671	1654.8
410.129	1709.63
410.587	1743.75
411.045	1756.11
411.503	1785.91
411.961	1805.64
412.419	1837.76
412.876	1863.34
413.334	1879.05
413.792	1902.64
414.25	1949.95
414.708	1967.89
415.165	1997.55
415.623	2045.34
416.081	2052.3
416.538	2100.33
416.996	2111.67
417.454	2148.93
417.911	2173.53
418.369	2197.3
418.826	2232.83
419.284	2225.87
419.741	2258.34
420.199	2280.03
420.656	2328.21
421.113	2346.83
421.571	2342.01
422.028	2373.53
422.485	2387.39
422.943	2422.22
423.4	2427.29
423.857	2438.38
424.314	2449.39
424.772	2475.29
425.229	2501.21
425.686	2519.28
426.143	2535.68
426.6	2569.92
427.057	2581.37
427.514	2586.45
427.971	2619.47
428.428	2640.54
428.885	2664.34
429.342	2685.3
429.799	2724.62
430.256	2716.22
430.713	2754.46
431.17	2762.07
431.627	2783.97
432.083	2807
432.54	2825.66
432.997	2850.53
433.454	2883.14
433.91	2901.59
434.367	2936.09
434.824	2963.09
435.28	2986.53
435.737	3012.64
436.193	3033.84
436.65	3061.14
437.106	3091.32
437.563	3121.76
438.019	3154.84
438.476	3173.04
438.932	3189.57
439.388	3209.43
439.845	3241.33
440.301	3252.14
440.757	3273.55
441.214	3292.47
441.67	3302.64
442.126	3324.43
442.582	3344.42
443.039	3373.13
443.495	3386.05
443.951	3410.97
444.407	3438.05
444.863	3491.43
445.319	3525.16
445.775	3544.79
446.231	3613.71
446.687	3650.01
447.143	3701.26
447.599	3765.88
448.055	3820.14
448.511	3849.59
448.967	3885.49
449.422	3943.57
449.878	3981.89
450.334	4003.04
450.79	4027.32
451.245	4060.89
451.701	4090.82
452.157	4117
452.612	4121.51
453.068	4132.51
453.524	4136.69
453.979	4155.1
454.435	4149.43
454.89	4187.81
455.346	4219.83
455.801	4231.47
456.257	4281.57
456.712	4305.69
457.168	4367.33
457.623	4413.62
458.078	4458.52
458.534	4499.08
458.989	4558.2
459.444	4635.35
459.899	4693.32
460.354	4802.59
460.81	4779.28
461.265	4844.93
461.72	4912.26
462.175	4982.57
462.63	5011.33
463.085	5104.05
463.54	5190.69
463.995	5273.93
464.45	5355.18
464.905	5431.78
465.36	5506.32
465.815	5562.75
466.27	5625.92
466.725	5674.66
467.18	5712.61
467.634	5742.49
468.089	5778.99
468.544	5829.74
468.999	5843.52
469.453	5869.53
469.908	5858.17
470.363	5833.35
470.817	5825.75
471.272	5786.74
471.726	5710.09
472.181	5646.14
472.635	5583.26
473.09	5539
473.544	5470.62
473.999	5408.34
474.453	5371.56
474.908	5348.34
475.362	5311.01
475.816	5272.81
476.271	5215.52
476.725	5187.28
477.179	5167.62
477.633	5184.25
478.087	5186.25
478.542	5231.43
478.996	5291.05
479.45	5303.26
479.904	5349.44
480.358	5383.93
480.812	5418.48
481.266	5451.68
481.72	5458.59
482.174	5476.15
482.628	5487.23
483.082	5491.28
483.536	5483.43
483.99	5465.5
484.444	5442.23
484.897	5416.51
485.351	5394.17
485.805	5360.51
486.259	5361.59
486.712	5370.33
487.166	5356.93
487.62	5372.76
488.073	5398.27
488.527	5412.26
488.981	5453.89
489.434	5484.9
489.888	5526.32
490.341	5555.1
490.795	5593.07
491.248	5606.09
491.701	5633.49
492.155	5638.68
492.608	5652.28
493.062	5639.28
493.515	5620.45
493.968	5621.26
494.421	5587.22
494.875	5556.72
495.328	5545.09
495.781	5518.85
496.234	5449.82
496.687	5422.42
497.14	5406.48
497.594	5388.06
498.047	5384.67
498.5	5374.85
498.953	5379.84
499.406	5379.67
499.859	5376.01
500.311	5394.76
500.764	5415.69
501.217	5417.18
501.67	5421.78
502.123	5443.5
502.576	5457.86
503.028	5486.45
503.481	5489.59
503.934	5501.06
504.387	5503.18
504.839	5518.09
505.292	5540.4
505.745	5534.84
506.197	5526.33
506.65	5555.7
507.102	5573.23
507.555	5579.45
508.007	5616.18
508.46	5600.07
508.912	5618.08
509.364	5629.72
509.817	5655.07
510.269	5664.15
510.721	5663.77
511.174	5686.92
511.626	5699.72
512.078	5733.75
512.531	5726.73
512.983	5749.42
513.435	5780.1
513.887	5793.24
514.339	5796.1
514.791	5810.11
515.243	5814.3
515.695	5808.48
516.147	5850.83
516.599	5851.2
517.051	5846.38
517.503	5872.19
517.955	5868.41
518.407	5886.73
518.859	5919.16
519.311	5895.42
519.762	5933.7
520.214	5938.25
520.666	5959.36
521.118	5964.4
521.569	5958.89
522.021	5995.67
522.473	6001.24
522.924	5992.74
523.376	6012.66
523.827	6032.98
524.279	6038.34
524.73	6023.33
525.182	6029.43
525.633	6060.39
526.085	6061.38
526.536	6072.57
526.987	6097.52
527.439	6093.66
527.89	6093.81
528.341	6097.51
528.793	6120.86
529.244	6114.91
529.695	6128.07
530.146	6152.15
530.597	6139.67
531.049	6153.44
531.5	6169.02
531.951	6183.3
532.402	6167.84
532.853	6191.86
533.304	6179.5
533.755	6200.59
534.206	6200.47
534.657	6229.02
535.108	6238.24
535.558	6218.01
536.009	6225.91
536.46	6246.35
536.911	6245.41
537.362	6268.88
537.812	6289.11
538.263	6285.75
538.714	6289.55
539.164	6295
539.615	6294.68
540.066	6320.12
540.516	6341.73
540.967	6355.24
541.417	6343.18
541.868	6348.39
542.318	6363.7
542.769	6373.06
543.219	6386.8
543.669	6406.84
544.12	6397.91
544.57	6434.57
545.02	6397.98
545.471	6429.19
545.921	6423.86
546.371	6432.88
546.821	6429.48
547.272	6453.7
547.722	6448.52
548.172	6464.82
548.622	6466.59
549.072	6476.08
549.522	6492.31
549.972	6479.7
550.422	6497.41
550.872	6502.47
551.322	6510.18
551.772	6520.43
552.222	6522.72
552.671	6528.1
553.121	6521.73
553.571	6568.41
554.021	6536.26
554.471	6551.95
554.92	6563.86
555.37	6578.07
555.82	6579.78
556.269	6573.32
556.719	6569.11
557.168	6566
557.618	6576.75
558.068	6578.49
558.517	6588.86
558.967	6621.05
559.416	6612.26
559.865	6615.22
560.315	6607.24
560.764	6589.89
561.213	6606.75
561.663	6612.55
562.112	6611.06
562.561	6628.44
563.011	6635.38
563.46	6629.14
563.909	6625.99
564.358	6642.94
564.807	6627.14
565.256	6648.16
565.705	6656.74
566.154	6685.73
566.603	6649.44
567.052	6664.49
567.501	6669.41
567.95	6673.56
568.399	6687.24
568.848	6687
569.297	6703.66
569.746	6688.09
570.195	6694.83
570.643	6714.55
571.092	6725
571.541	6722.05
571.989	6736.34
572.438	6721.68
572.887	6735.27
573.335	6741.3
573.784	6732.55
574.232	6742.47
574.681	6740.11
575.129	6749.85
575.578	6764.91
576.026	6761.93
576.475	6758.23
576.923	6764.48
577.372	6752.86
577.82	6759.05
578.268	6766.85
578.716	6768.28
579.165	6771.89
579.613	6786.09
580.061	6799.41
580.509	6784.47
580.957	6794.51
581.406	6795.33
581.854	6801.1
582.302	6798.94
582.75	6813.08
583.198	6802.5
583.646	6801.86
584.094	6797.59
584.542	6820.74
584.99	6799.16
585.437	6801.48
585.885	6807.23
586.333	6814.24
586.781	6800.6
587.229	6802.23
587.676	6800.91
588.124	6778.34
588.572	6780.33
589.019	6780.32
589.467	6760.99
589.915	6751.09
590.362	6735.16
590.81	6740.27
591.257	6725.05
591.705	6737.88
592.152	6711.49
592.6	6703.74
593.047	6681.99
593.494	6701.47
593.942	6664.57
594.389	6666.99
594.836	6639.59
595.284	6633.59
595.731	6652.08
596.178	6627.59
596.625	6633.93
597.072	6618.66
597.52	6604.89
597.967	6587.32
598.414	6613.36
598.861	6591.02
599.308	6579.67
599.755	6599.25
600.202	6581.09
600.649	6583.93
601.096	6581.49
601.543	6574.24
601.989	6585.8
602.436	6583.19
602.883	6585.43
603.33	6570.82
603.777	6583.24
604.223	6584.91
604.67	6578.28
605.117	6578.97
605.563	6577.14
606.01	6577.65
606.456	6575.07
606.903	6572.68
607.35	6575.75
607.796	6584.73
608.243	6591.05
608.689	6596.91
609.135	6598.65
609.582	6587.64
610.028	6609.53
610.474	6602.35
610.921	6613.57
611.367	6611.42
611.813	6615.57
612.26	6607.16
612.706	6627.3
613.152	6632.19
613.598	6651.39
614.044	6639.41
614.49	6644.58
614.936	6652.44
615.382	6650.5
615.828	6647.24
616.274	6657.59
616.72	6645.62
617.166	6647.45
617.612	6654.44
618.058	6668.75
618.504	6664.68
618.95	6649.39
619.395	6672.07
619.841	6670.92
620.287	6639.8
620.733	6634.91
621.178	6626
621.624	6623.43
622.069	6619.32
622.515	6605.77
622.961	6589.55
623.406	6595.99
623.852	6580.07
624.297	6556.95
624.743	6558.68
625.188	6538.67
625.633	6516.9
626.079	6486.92
626.524	6503.57
626.969	6493.07
627.415	6472.8
627.86	6459.11
628.305	6457.32
628.75	6457.89
629.196	6434.36
629.641	6427.48
630.086	6418.78
630.531	6411.7
630.976	6412.99
631.421	6396.97
631.866	6398.26
632.311	6372.44
632.756	6393.99
633.201	6353.48
633.646	6360.7
634.091	6346.66
634.535	6332.65
634.98	6367.97
635.425	6300.26
635.87	6309.72
636.314	6296.26
636.759	6283.07
637.204	6285.62
637.648	6274.05
638.093	6270.07
638.538	6247.8
638.982	6232.69
639.427	6224.75
639.871	6250.88
640.316	6243.67
640.76	6234.36
641.205	6220.47
641.649	6239.52
642.093	6243.66
642.538	6255.47
642.982	6276.02
643.426	6253.65
643.87	6287.09
644.315	6276.69
644.759	6268.74
645.203	6300.85
645.647	6316.18
646.091	6304.7
646.535	6326.93
646.979	6334.24
647.423	6325.32
647.867	6335.68
648.311	6332.02
648.755	6328.53
649.199	6329.16
649.643	6313.19
650.087	6288.07
650.531	6267.69
650.975	6269.16
651.418	6237.81
651.862	6245.78
652.306	6220.41
652.75	6168.99
653.193	6174.94
653.637	6134.01
654.08	6130.09
654.524	6100.58
654.968	6087.91
655.411	6061.74
655.855	6058.82
656.298	6042.36
656.741	6043.41
657.185	6043.42
657.628	6033.33
658.072	6042.92
658.515	6016.6
658.958	6025.32
659.401	6040.74
659.845	6033.74
660.288	6031.89
660.731	6021.49
661.174	6045.48
661.617	6041.48
662.06	6056.58
662.504	6067.5
662.947	6066.82
663.39	6069.24
663.833	6091.39
664.276	6109.16
664.718	6108.68
665.161	6117.07
665.604	6109.15
666.047	6130.11
666.49	6131.08
666.933	6144.9
667.375	6157.05
667.818	6153.91
668.261	6168.41
668.703	6162.82
669.146	6178.91
669.589	6188.81
670.031	6195.08
670.474	6197.09
670.916	6204.32
671.359	6196.48
671.801	6198.51
672.244	6200.11
672.686	6206.53
673.129	6207.99
673.571	6218.07
674.013	6238.73
674.456	6221.02
674.898	6241.86
675.34	6234.02
675.782	6232.56
676.224	6245.17
676.667	6222.73
677.109	6256.84
677.551	6266.36
677.993	6271.34
678.435	6291.07
678.877	6339.39
679.319	6361.83
679.761	6416.86
680.203	6456.67
680.645	6480.48
681.087	6497.99
681.529	6533.02
681.97	6579.57
682.412	6591.74
682.854	6625
683.296	6627.64
683.737	6631.05
684.179	6660.86
684.621	6688.83
685.062	6679.61
685.504	6677.98
685.945	6678.86
686.387	6675.36
686.828	6674.65
687.27	6656.45
687.711	6647.53
688.153	6633.88
688.594	6639.27
689.035	6574.49
689.477	6555.9
689.918	6530.19
690.359	6507.36
690.801	6480.57
691.242	6450.6
691.683	6408.48
692.124	6366.17
692.565	6328.09
693.006	6292.64
693.447	6242.25
693.889	6200.91
694.33	6168.01
694.771	6119.12
695.211	6113.61
695.652	6073.09
696.093	6036.31
696.534	6026.53
696.975	5989.55
697.416	5970.82
697.857	5941.39
698.297	5932.93
698.738	5927.95
699.179	5909.91
699.619	5892.3
700.06	5871.33
700.501	5889.01
700.941	5859.53
701.382	5831.93
701.822	5824.65
702.263	5827.03
702.703	5835.3
703.144	5836.33
703.584	5841.07
704.025	5860.66
704.465	5825.11
704.905	5853.9
705.346	5867.03
705.786	5875.03
706.226	5905.85
706.666	5925.61
707.106	5954.59
707.547	5984.09
707.987	6016.64
708.427	6068.41
708.867	6103.61
709.307	6159.8
709.747	6195.22
710.187	6218.32
710.627	6273.19
711.067	6305.74
711.507	6346.14
711.947	6350.8
712.386	6368.5
712.826	6382.99
713.266	6382.74
713.706	6380.05
714.145	6394.99
714.585	6387.48
715.025	6354.19
715.464	6341.62
715.904	6315.47
716.344	6261.99
716.783	6255.01
717.223	6192.52
717.662	6155.92
718.102	6119.83
718.541	6090.89
718.98	6031.84
719.42	6012.09
719.859	5975.41
720.298	5958.95
720.738	5919.57
721.177	5906.23
721.616	5871.39
722.055	5849.19
722.495	5852.95
722.934	5848.97
723.373	5831.35
723.812	5856.53
724.251	5868.6
724.69	5885.12
725.129	5898.92
725.568	5941.97
726.007	5980.64
726.446	6018.42
726.885	6071.94
727.323	6106.74
727.762	6157.66
728.201	6208.61
728.64	6271.45
729.079	6344.64
729.517	6420.1
729.956	6472.99
730.395	6535.07
730.833	6573.41
731.272	6609.93
731.71	6633.99
732.149	6647.93
732.587	6643.81
733.026	6623.95
733.464	6627.78
733.903	6598.42
734.341	6565.76
734.779	6523.58
735.218	6488.24
735.656	6444.89
736.094	6400.72
736.532	6369.42
736.971	6333.22
737.409	6289.55
737.847	6285.11
738.285	6265.1
738.723	6268.88
739.161	6243.67
739.599	6238.98
740.037	6292.26
740.475	6232.16
740.913	6252.99
741.351	6234.57
741.789	6245.3
742.227	6224.11
742.665	6227.1
743.102	6204.92
743.54	6188.64
743.978	6184.47
744.416	6148.49
744.853	6122.39
745.291	6096.32
745.729	6076.43
746.166	6070.6
746.604	6048.53
747.041	6033.34
747.479	6027.78
747.916	6010.81
748.354	6006.33
748.791	5997.39
749.228	5978.24
749.666	5966.49
750.103	5972.3
750.54	5951.31
750.978	5934.33
751.415	5918.92
751.852	5921.36
752.289	5903.75
752.726	5882.92
753.164	5838.49
753.601	5836.66
754.038	5807.38
754.475	5809.32
754.912	5793.08
755.349	5787.31
755.786	5774.26
756.223	5793.39
756.659	5810.9
757.096	5844.09
757.533	5877.31
757.97	5918.26
758.407	5967.15
758.843	6046.55
759.28	6167.49
759.717	6337.35
760.153	6619.56
760.59	6920.2
761.027	7228.45
761.463	7534.18
761.9	7749.77
762.336	7947.05
762.773	8073.88
763.209	8172.26
763.646	8209.99
764.082	8219.64
764.518	8215.44
764.955	8161.74
765.391	8071.41
765.827	7935.32
766.263	7746.1
766.7	7512.91
767.136	7165.16
767.572	6847.89
768.008	6561.73
768.444	6291.03
768.88	6016.48
769.316	5827.48
769.752	5655.74
770.188	5493.93
770.624	5401.12
771.06	5310.2
771.496	5247.97
771.932	5168.43
772.367	5091.39
772.803	5061.32
773.239	4989.55
773.675	4946.55
774.11	4908.8
774.546	4881.76
774.982	4829.52
775.417	4787.01
775.853	4756.3
776.288	4726.12
776.724	4710.84
777.159	4671.84
777.595	4650.73
778.03	4630.3
778.466	4633.15
778.901	4615.91
779.336	4611.97
779.772	4618.52
780.207	4605.12
780.642	4630.33
781.077	4588.1
781.513	4605.86
781.948	4591.15
782.383	4621.56
782.818	4600.01
783.253	4610.09
783.688	4621.9
784.123	4641.67
784.558	4689.08
784.993	4733.27
785.428	4786.06
785.863	4842.93
786.298	4903.99
786.733	4966.67
787.167	5044.64
787.602	5077.59
788.037	5129.18
788.472	5156.86
788.906	5188.09
789.341	5206.43
789.776	5232.09
790.21	5222.28
790.645	5203.98
791.079	5196.41
791.514	5155.45
791.948	5134.97
792.383	5086.48
792.817	5078.35
793.252	5024.62
793.686	5010.6
794.12	5013.68
794.554	5005.76
794.989	5005.03
795.423	5021.38
795.857	5017.98
796.291	5036.52
796.725	5054.1
797.16	5056.3
797.594	5086.83
798.028	5079.73
798.462	5080.36
798.896	5070.36
799.33	5057.65
799.764	5037.38
800.198	5012.67
800.631	4984.93
801.065	4940.12
801.499	4899.08
801.933	4860.06
802.367	4877.8
802.8	4805.27
803.234	4762.44
803.668	4763.82
804.101	4725.47
804.535	4713
804.968	4702.26
805.402	4707.48
805.835	4730.06
806.269	4727.58
806.702	4740.48
807.136	4749.8
807.569	4772.98
808.003	4804.09
808.436	4836.76
808.869	4863.12
809.302	4895.65
809.736	4940.84
810.169	4995.9
810.602	5033.48
811.035	5078.36
811.468	5152.45
811.901	5229.93
812.335	5290.44
812.768	5380.69
813.201	5474.76
813.633	5607.7
814.066	5766.98
814.499	5937.15
814.932	6132.97
815.365	6350.64
815.798	6681.95
816.231	7010.62
816.663	7467.5
817.096	7999.58
817.529	8708.86
817.961	9662.09
818.394	10954.99
818.827	12848.61
819.259	15414.43
819.692	18237.62
820.124	20996.78
820.557	23486.85
820.989	25597.28
821.422	27312.48
821.854	28743.1
822.286	29859.43
822.719	30748.31
823.151	31517.84
823.583	32202.55
824.016	32799.6
824.448	33190.01
824.88	33066.42
825.312	32265.31
825.744	30814.87
826.176	28936.81
826.608	26899.94
827.04	24966.96
827.472	23180.17
827.904	21552.65
828.336	20129.18
828.768	18943.06
829.2	17873.67
829.632	16988.81
830.064	16159.61
830.495	15403.11
830.927	14776.23
831.359	14274.12
831.791	13839.81
832.222	13473.59
832.654	13114.9
833.086	12809.8
833.517	12604.16
833.949	12368.38
834.38	12103.23
834.812	11849.73
835.243	11571.34
835.674	11239.22
836.106	10906.41
836.537	10511.94
836.969	10130.11
837.4	9691.66
837.831	9242.88
838.262	8837.18
838.693	8404.22
839.125	8054.57
839.556	7705.72
839.987	7447.81
840.418	7190.75
840.849	6951.41
841.28	6733.3
841.711	6521.32
842.142	6311.09
842.573	6093.7
843.004	5826.22
843.435	5478.26
843.865	5141.59
844.296	4822.48
844.727	4544.42
845.158	4284.56
845.589	4096.16
846.019	3921.61
846.45	3802.01
846.88	3684.62
847.311	3603.47
847.742	3524.01
848.172	3476.43
848.603	3414.89
849.033	3383.24
849.464	3349.01
849.894	3301.97
850.324	3285.78
850.755	3253.89
851.185	3235.5
851.615	3204.29
852.045	3205.49
852.476	3197.34
852.906	3199.13
853.336	3208.55
853.766	3206.28
854.196	3209.07
854.626	3219.29
855.056	3243.32
855.486	3252.16
855.916	3261.08
856.346	3292.47
856.776	3304.04
857.206	3319.37
857.636	3328.57
858.066	3339.29
858.495	3359.22
858.925	3383.26
859.355	3417.58
859.785	3439.26
860.214	3471.13
860.644	3485.64
861.074	3547.64
861.503	3579.32
861.933	3614.58
862.362	3683.03
862.792	3732.62
863.221	3792.14
863.651	3864.99
864.08	3934.39
864.509	4005.53
864.939	4081.21
865.368	4155.88
865.797	4253.67
866.226	4337.22
866.656	4453.18
867.085	4549.43
867.514	4641.58
867.943	4745.52
868.372	4852.53
868.801	4960.03
869.23	5097.36
869.659	5234.66
870.088	5370.39
870.517	5508.88
870.946	5676.67
871.375	5833.01
871.804	6030.36
872.232	6208.01
872.661	6412.97
873.09	6665.25
873.519	6946.88
873.947	7210.57
874.376	7543.67
874.804	7939.82
875.233	8436.44
875.662	9023.64
876.09	9763.97
876.519	10765.32
876.947	12093.94
877.375	13894.07
877.804	16089.05
878.232	18488.26
878.66	21032.77
879.089	23512.98
879.517	25736.1
879.945	27698.15
880.373	29293.4
880.802	30556.38
881.23	31456.19
881.658	31994.74
882.086	32261.59
882.514	32148.7
882.942	31697.77
883.37	30810.33
883.798	29491.84
884.226	27733.19
884.654	25786.53
885.082	23659.33
885.51	21547.17
885.937	19545.62
886.365	17735.18
886.793	16160.7
887.221	14826.87
887.648	13720.48
888.076	12833.57
888.503	12191.19
888.931	11668.82
889.359	11338.84
889.786	11203.84
890.214	11222.05
890.641	11477.56
891.068	11998.74
891.496	12653.15
891.923	13363.56
892.351	14011.53
892.778	14587.39
893.205	14953.32
893.632	15230.16
894.06	15470.34
894.487	15566.82
894.914	15614.12
895.341	15524.77
895.768	15342.68
896.195	15110.75
896.622	14724.68
897.049	14281.71
897.476	13673.88
897.903	12913.49
898.33	12196.15
898.757	11560.5
899.184	11101.31
899.61	10842.12
900.037	10929.57
900.464	11471.72
900.891	12358.82
901.317	13289.76
901.744	14084.39
902.17	14702.2
902.597	15096.39
903.024	15391.98
903.45	15532.41
903.877	15591.32
904.303	15573.02
904.729	15401.3
905.156	15155.71
905.582	14872.52
906.008	14425.23
906.435	13790.67
906.861	12942.14
907.287	11863.01
907.713	10822.36
908.14	9921.43
908.566	9214.51
908.992	8701.94
909.418	8398.55
909.844	8285.16
910.27	8376.77
910.696	8670.53
911.122	9190.16
911.548	10000.47
911.974	11132.73
912.4	12460.07
912.825	13850.96
913.251	15155.27
913.677	16301.89
914.103	17205.64
914.528	17905.31
914.954	18417.57
915.38	18787.71
915.805	18966.56
916.231	18976.16
916.656	18839.76
917.082	18507.39
917.507	17964.42
917.933	17191.02
918.358	16187.25
918.784	15010.2
919.209	13714.93
919.634	12492.98
920.059	11405.36
920.485	10493.22
920.91	9625.24
921.335	8956.72
921.76	8337.83
922.185	7835.18
922.61	7395.34
923.036	7021.45
923.461	6697.03
923.886	6401.61
924.31	6110.41
924.735	5891.16
925.16	5693.26
925.585	5499.4
926.01	5335.01
926.435	5219.08
926.86	5096.51
927.284	5013.18
927.709	4932.16
928.134	4857.67
928.558	4821.73
928.983	4782.5
929.408	4754.09
929.832	4760.83
930.257	4748.16
930.681	4770.24
931.106	4798.47
931.53	4822.22
931.954	4870.43
932.379	4941.99
932.803	5025.27
933.227	5176.01
933.652	5263.28
934.076	5459.11
934.5	5654.3
934.924	5843.23
935.348	6060.68
935.772	6255.74
936.197	6472.95
936.621	6663.94
937.045	6875.82
937.469	7012.45
937.893	7171.68
938.316	7306.4
938.74	7400.61
939.164	7460.69
939.588	7518.57
940.012	7502.24
940.436	7497.61
940.859	7447.75
941.283	7413.69
941.707	7354.18
942.13	7298.53
942.554	7242.95
942.977	7177.57
943.401	7120.26
943.824	7097.84
944.248	7066.53
944.671	7038.12
945.095	7046.62
945.518	7032.58
945.941	7044.82
946.365	7080.06
946.788	7105.24
947.211	7127.91
947.634	7170.57
948.058	7179.32
948.481	7188.58
948.904	7175.07
949.327	7118.55
949.75	7071.03
950.173	7009.3
950.596	6914.05
951.019	6815.98
951.442	6667.99
951.865	6510.35
952.288	6349.1
952.71	6158.49
953.133	5939.26
953.556	5742.62
953.979	5510.56
954.401	5295.08
954.824	5072.01
955.247	4865.19
955.669	4666.53
956.092	4484.6
956.514	4308.26
956.937	4143.32
957.359	4033.26
957.782	3897.63
958.204	3760.83
958.627	3692.12
959.049	3584.18
959.471	3511.8
959.893	3446.14
960.316	3403.18
960.738	3338.55
961.16	3302.68
961.582	3286.79
962.004	3254.04
962.426	3272.76
962.848	3273.47
963.27	3271.14
963.692	3297.89
964.114	3335.13
964.536	3385.34
964.958	3428.05
965.38	3496.2
965.802	3565.83
966.224	3647.59
966.645	3730.92
967.067	3802.91
967.489	3873.3
967.911	3966.75
968.332	4038.37
968.754	4132.36
969.175	4190.84
969.597	4274.99
970.018	4326.27
970.44	4419.76
970.861	4494.4
971.283	4540.26
971.704	4621.51
972.125	4682.84
972.547	4790.43
972.968	4930.51
973.389	5089.17
973.81	5300.07
974.232	5566.17
974.653	5968.66
975.074	6459.67
975.495	7066.3
975.916	7803.09
976.337	8483.01
976.758	9066.31
977.179	9535.81
977.6	9869.66
978.021	10071.81
978.442	10168.42
978.862	10189.74
979.283	10092.82
979.704	9948.77
980.125	9732.61
980.545	9400.98
980.966	8992.67
981.387	8482.77
981.807	7873.82
982.228	7182.26
982.648	6518.59
983.069	5941.15
983.489	5458.65
983.91	5111.24
984.33	4874.69
984.75	4725.86
985.171	4656.26
985.591	4660.44
986.011	4734.88
986.431	4891.43
986.852	5126.35
987.272	5453.15
987.692	5895.99
988.112	6441.58
988.532	7056.17
988.952	7618.99
989.372	8134.39
989.792	8577.14
990.212	8921.56
990.632	9159.3
991.052	9304.01
991.472	9406.34
991.892	9369.38
992.311	9271.45
992.731	9113.93
993.151	8874.57
993.57	8496.27
993.99	8077.19
994.41	7539.4
994.829	6936.55
995.249	6349.49
995.668	5798.81
996.088	5266.58
996.507	4836.5
996.927	4465.39
997.346	4145.39
997.765	3876.12
998.185	3665.11
998.604	3456.33
999.023	3267.12
999.442	3111.41
999.862	2994.08
1000.281	2886.92
1000.7	2785.75
1001.119	2683.32
1001.538	2615.3
1001.957	2539.64
1002.376	2496.74
1002.795	2438.08
1003.214	2367.75
1003.633	2351.24
1004.052	2300.74
1004.471	2274.59
1004.889	2244.72
1005.308	2234.55
1005.727	2206.47
1006.146	2222.76
1006.564	2192.67
1006.983	2216.96
1007.401	2226.72
1007.82	2230.29
1008.238	2248.34
1008.657	2271.82
1009.075	2283.96
1009.494	2286.89
1009.912	2322.51
1010.331	2316.09
1010.749	2305.93
1011.167	2321.25
1011.586	2293.43
1012.004	2284.34
1012.422	2262.09
1012.84	2227.89
1013.258	2215.04
1013.676	2143.54
1014.094	2087.43
1014.512	2006.42
1014.93	1967.09
1015.348	1914.96
1015.766	1849.99
1016.184	1795.59
1016.602	1742.28
1017.02	1683.3
1017.438	1622.76
1017.856	1554.19
1018.273	1526.27
1018.691	1478.2
1019.109	1432.2
1019.526	1408.99
1019.944	1354.1
1020.361	1308.58
1020.779	1274.38
1021.197	1255.77
1021.614	1216.43
1022.031	1196.16
1022.449	1158.35
1022.866	1135.23
1023.284	1116.66
1023.701	1100.98
1024.118	1070.32
1024.535	1054.3
1024.953	1020.93
1025.37	1031.75
1025.787	980.34
1026.204	988.64
1026.621	977.49
1027.038	960.78
1027.455	941.44
1027.872	936.85
1028.289	918.54
1028.706	912.55
1029.123	895.95
1029.54	886.98
1029.956	869.4
1030.373	886.33
1030.79	860.31
1031.207	863.28
1031.623	850.28
1032.04	846.72
1032.457	816.7
1032.873	820.99
1033.29	811.78
1033.706	793.6
1034.123	802.39
1034.539	779.15
1034.956	756.08
1035.372	744.76
1035.788	748.85
1036.205	737.04
1036.621	727.41
1037.037	727.36
1037.453	716.99
1037.87	718.21
1038.286	707.62
1038.702	680.97
1039.118	680.01
1039.534	698.64
1039.95	670.2
1040.366	660.77
1040.782	684.33
1041.198	665.03
1041.614	656.53
1042.029	657.93
1042.445	646.15
1042.861	628.22
1043.277	664.46
1043.693	635.35
1044.108	638.35
1044.524	639.41
1044.939	659.18
1045.355	645.53
1045.771	632.55
1046.186	622.17
1046.602	620.07
1047.017	625.45
1047.432	629.23
1047.848	634.42
1048.263	635.86
1048.678	620.94
1049.094	629.84
1049.509	627.98
1049.924	619.13
1050.339	623.99
1050.754	613.39
1051.17	625.13
1051.585	596.17
1052	600.19
1052.415	598.25
1052.83	585.29
1053.245	596.82
1053.66	583.74
1054.074	578.81
1054.489	576.3
1054.904	544.52
1055.319	563.31
1055.734	529.32
1056.148	518.9
1056.563	510.39
1056.978	506.84
1057.392	495.09
1057.807	473.7
1058.221	469.61
1058.636	485.15
1059.05	464.53
1059.465	454.93
1059.879	449.87
1060.293	446.42
1060.708	444.89
1061.122	418.04
1061.536	436.55
1061.951	422.88
1062.365	409.01
1062.779	400.78
1063.193	421.34
1063.607	393.66
1064.021	383.45
1064.435	386.17
1064.849	384.22
1065.263	378.19
1065.677	384.16
1066.091	386.52
1066.505	391.84
1066.919	365.35
1067.333	370.1
1067.746	389.8
1068.16	366.75
1068.574	367.18
1068.987	368.83
1069.401	368.28
1069.815	353.04
1070.228	351.39
1070.642	357.59
1071.055	344.93
1071.469	347.96
1071.882	351.04
1072.296	353.72
1072.709	346.3
1073.122	343.67
1073.536	339.3
1073.949	338.89
1074.362	348.57
1074.775	354.7
1075.188	345.96
1075.601	350.46
1076.015	345.01
1076.428	339.59
1076.841	336.66
1077.254	358.91
1077.667	347.34
1078.079	353.68
1078.492	354.11
1078.905	349.91
1079.318	362.89
1079.731	354.05
1080.144	379.14
1080.556	363.81
1080.969	366.49
1081.382	357.67
1081.794	365.85
1082.207	363.62
1082.619	367.32
1083.032	344.44
1083.444	342.53
1083.857	336.05
1084.269	335.68
1084.682	329.58
1085.094	323.89
1085.506	324.07
1085.918	314.06
1086.331	302.81
1086.743	292.97
1087.155	299.32
1087.567	298.5
1087.979	282.11
1088.391	279.13
1088.803	282.17
1089.215	265.77
1089.627	271.75
1090.039	264.01
1090.451	265.77
1090.863	262.12
1091.275	251.96
1091.687	253.62
1092.098	234.64
1092.51	232.68
1092.922	237.09
1093.334	226.18
1093.745	218.4
1094.157	224.39
1094.568	220.37
1094.98	203.71
1095.391	201.47
1095.803	207.81
1096.214	205.13
1096.626	200.04
1097.037	194.03
1097.448	196.52
1097.86	197.67
1098.271	190.32
1098.682	182.1
1099.093	188.08
1099.504	173.69
1099.916	179.64
1100.327	180.34
1100.738	184.87
1101.149	173.38
1101.56	167.74
1101.971	193.77
1102.381	173.39
1102.792	176.56
1103.203	172.82
1103.614	166.06
1104.025	162.28
1104.436	167.54
1104.846	173.85
1105.257	199.75
1105.668	162.99
1106.078	164.31
1106.489	160.64
1106.899	153.55
1107.31	155.99
1107.72	155.05
1108.131	163.12
1108.541	154.1
1108.951	164.54
1109.362	153.93
1109.772	153.38
1110.182	143.2
1110.592	160.74
1111.003	-5.8
1111.413	-3.54
1111.823	-4.55
1112.233	-6.22
