Data from T_1_B_MAYP1165941__0__19-50-53-036.txt Node

Date: Wed May 31 19:50:53 JST 2023
User: takis
Spectrometer: MAYP116594
Trigger mode: 0
Integration Time (sec): 5.000000E-2
Scans to average: 100
Electric dark correction enabled: true
Nonlinearity correction enabled: false
Boxcar width: 0
XAxis mode: Wavelengths
Number of Pixels in Spectrum: 2068
>>>>>Begin Spectral Data<<<<<
199.712	839.22
200.181	-155.18
200.65	30.68
201.119	-11.43
201.587	114.07
202.056	116.23
202.525	130.63
202.993	142.87
203.462	141.38
203.93	128.33
204.399	138.44
204.867	126.11
205.336	128.64
205.804	132.3
206.273	126.88
206.741	117.93
207.21	118.38
207.678	125.84
208.146	124.35
208.615	124.92
209.083	123.16
209.551	132.06
210.02	128.16
210.488	129.53
210.956	136.56
211.424	130.85
211.893	139.05
212.361	131.78
212.829	123.42
213.297	136.14
213.765	127.45
214.233	130.83
214.701	128.09
215.169	121.17
215.637	132.35
216.105	123
216.573	145.66
217.041	124.14
217.509	127.19
217.977	147.38
218.445	131.23
218.913	138.85
219.381	131.94
219.848	132.16
220.316	139.94
220.784	136.88
221.252	124
221.719	131.69
222.187	126.68
222.655	130.29
223.122	133.47
223.59	137.36
224.058	139.76
224.525	121.15
224.993	127.06
225.46	135.67
225.928	128.58
226.395	139.98
226.863	134.06
227.33	137.43
227.798	140.09
228.265	139.19
228.732	128.57
229.2	117.23
229.667	134.66
230.134	129.44
230.602	120.88
231.069	140.64
231.536	133.8
232.003	123.91
232.47	139.88
232.938	125.29
233.405	128.57
233.872	128.04
234.339	126.46
234.806	127.34
235.273	130.49
235.74	135.82
236.207	130.6
236.674	135.96
237.141	136.11
237.608	122.82
238.075	124.41
238.542	115.1
239.009	131
239.476	129.55
239.942	136.46
240.409	127.88
240.876	125.56
241.343	129.45
241.809	131.83
242.276	148.78
242.743	120.92
243.21	126.78
243.676	124.97
244.143	141.49
244.609	137.21
245.076	128.87
245.542	121.54
246.009	124.39
246.476	133.76
246.942	128.38
247.408	119.27
247.875	129.83
248.341	130.53
248.808	129.8
249.274	132.52
249.74	135.11
250.207	142.82
250.673	131.86
251.139	140.42
251.606	131.91
252.072	142.41
252.538	128.95
253.004	130.14
253.47	136.6
253.936	135.05
254.403	138.78
254.869	132.73
255.335	127.39
255.801	130.65
256.267	122.4
256.733	132.96
257.199	135.92
257.665	122.75
258.131	121.86
258.596	136.94
259.062	137.46
259.528	126.03
259.994	126.88
260.46	128.45
260.926	120.4
261.391	120.45
261.857	134.28
262.323	131.97
262.789	129.74
263.254	139.47
263.72	127.91
264.185	129.36
264.651	138.37
265.117	132.16
265.582	132.5
266.048	135.99
266.513	127.08
266.979	126.83
267.444	123.01
267.91	123.41
268.375	126.24
268.84	110.84
269.306	132.85
269.771	125.71
270.236	124.96
270.702	140.65
271.167	124.02
271.632	137.26
272.098	128.88
272.563	126.6
273.028	121.79
273.493	123.24
273.958	132.52
274.423	128.67
274.888	138.29
275.353	120.75
275.819	122.2
276.284	122.61
276.749	129.54
277.214	140.46
277.678	141.26
278.143	121.32
278.608	127.7
279.073	128.15
279.538	135.96
280.003	124.11
280.468	133.22
280.932	127.31
281.397	131.87
281.862	133.3
282.327	124.15
282.791	135.44
283.256	123.53
283.721	129.2
284.185	133.35
284.65	131.02
285.114	126.17
285.579	125.35
286.044	128.92
286.508	117.87
286.973	132.51
287.437	139.75
287.901	123.13
288.366	146.09
288.83	129.98
289.295	133.69
289.759	116.8
290.223	133.39
290.687	129.93
291.152	141.56
291.616	130.24
292.08	131.15
292.544	130.9
293.009	134.31
293.473	148.93
293.937	135.82
294.401	130.26
294.865	139.9
295.329	130.43
295.793	118.75
296.257	122.46
296.721	124.62
297.185	131.02
297.649	118.61
298.113	125.48
298.577	125.29
299.041	126.43
299.505	138.55
299.968	119.66
300.432	141.63
300.896	132.06
301.36	141.07
301.823	138.3
302.287	120.63
302.751	125.11
303.214	120.88
303.678	134.18
304.142	128.61
304.605	119.44
305.069	139.86
305.532	146.18
305.996	138.13
306.459	134.64
306.923	137.77
307.386	121.5
307.85	120.2
308.313	123.01
308.776	124.07
309.24	129.88
309.703	131.37
310.166	138.46
310.63	126.44
311.093	127.09
311.556	140.1
312.019	121.11
312.482	123.61
312.946	126.96
313.409	131.79
313.872	123.08
314.335	134.01
314.798	127.14
315.261	141.23
315.724	118.96
316.187	135.1
316.65	121.03
317.113	117.91
317.576	132.75
318.039	130.1
318.502	137.29
318.964	124.08
319.427	127.4
319.89	123.57
320.353	138.79
320.816	122.16
321.278	133.81
321.741	127.02
322.204	123.49
322.666	128.24
323.129	124.6
323.592	131.72
324.054	128
324.517	129.06
324.979	118.72
325.442	121.68
325.904	129.14
326.367	139.1
326.829	121.97
327.292	137.29
327.754	115.57
328.216	122.72
328.679	126.65
329.141	126.76
329.603	141.81
330.066	130.18
330.528	126.65
330.99	122.87
331.452	133.39
331.914	124.85
332.377	132.18
332.839	123.19
333.301	130.38
333.763	138.59
334.225	127.41
334.687	121.53
335.149	133.78
335.611	116.01
336.073	122.52
336.535	130.93
336.997	133.46
337.459	123.31
337.92	137.44
338.382	133.79
338.844	139.18
339.306	130.26
339.768	126.6
340.229	141.19
340.691	130.15
341.153	137.82
341.614	124.2
342.076	115.66
342.538	119.79
342.999	125.95
343.461	129.2
343.922	140.38
344.384	130.58
344.845	129.32
345.307	124.3
345.768	162.25
346.23	130.5
346.691	117.61
347.153	137.41
347.614	125.3
348.075	121.03
348.536	127.62
348.998	127.06
349.459	132.2
349.92	163.02
350.381	127.31
350.843	141.8
351.304	130.41
351.765	142.57
352.226	115.05
352.687	124.94
353.148	124.93
353.609	139.31
354.07	132.95
354.531	133.47
354.992	125.11
355.453	130.06
355.914	139.16
356.375	142.63
356.836	123.88
357.297	125.32
357.757	125.87
358.218	121.24
358.679	124.68
359.14	129.31
359.6	126.11
360.061	141.57
360.522	131.14
360.982	132.49
361.443	128.01
361.904	127.8
362.364	137.94
362.825	141.61
363.285	147.22
363.746	145.54
364.206	141.73
364.667	131.61
365.127	134.43
365.588	139.27
366.048	139.68
366.508	143.07
366.969	132.44
367.429	143.03
367.889	145.42
368.349	138.2
368.81	139.94
369.27	147.99
369.73	152.6
370.19	139.87
370.65	151.09
371.11	150.02
371.57	157.25
372.031	164.94
372.491	178.07
372.951	165.01
373.411	187.45
373.871	175.58
374.33	191.28
374.79	174.97
375.25	198.9
375.71	226.88
376.17	209.59
376.63	220.87
377.09	244.36
377.549	233.41
378.009	236.86
378.469	260.27
378.928	272.4
379.388	262.93
379.848	296.11
380.307	312.17
380.767	325.28
381.227	323.54
381.686	348.21
382.146	384.01
382.605	386.66
383.065	400.77
383.524	403.96
383.983	448.45
384.443	451.75
384.902	461.85
385.361	492.55
385.821	495.84
386.28	542.57
386.739	560.53
387.199	572.41
387.658	607.43
388.117	614.37
388.576	653.68
389.035	677.74
389.494	694.88
389.954	735.47
390.413	765.34
390.872	792.04
391.331	846.48
391.79	865.45
392.249	899.78
392.708	929.65
393.166	980.2
393.625	1021.39
394.084	1071.15
394.543	1093.43
395.002	1152.38
395.461	1186.3
395.919	1221.35
396.378	1260.99
396.837	1316.24
397.296	1352.84
397.754	1417.97
398.213	1445.63
398.672	1517.86
399.13	1542.05
399.589	1576.37
400.047	1620.74
400.506	1658.43
400.964	1707.38
401.423	1728.94
401.881	1789.01
402.34	1831.34
402.798	1880.71
403.256	1926.7
403.715	1976.53
404.173	2014.04
404.631	2049.87
405.09	2114.73
405.548	2142.12
406.006	2204.47
406.464	2255.41
406.923	2306.2
407.381	2343.5
407.839	2391.02
408.297	2457.57
408.755	2496.57
409.213	2538.34
409.671	2570.13
410.129	2639.01
410.587	2697.38
411.045	2727.95
411.503	2773.97
411.961	2806.87
412.419	2858.01
412.876	2897.24
413.334	2929.89
413.792	2980.32
414.25	3030.76
414.708	3072.5
415.165	3119.25
415.623	3173.76
416.081	3198.51
416.538	3270.71
416.996	3295.02
417.454	3346.67
417.911	3386.24
418.369	3426.39
418.826	3478.6
419.284	3490.68
419.741	3530.51
420.199	3568.42
420.656	3627.44
421.113	3656.42
421.571	3672.96
422.028	3700.58
422.485	3730.13
422.943	3778.11
423.4	3792.36
423.857	3810.22
424.314	3836.07
424.772	3873.9
425.229	3902
425.686	3942.53
426.143	3953.11
426.6	4015.56
427.057	4033.53
427.514	4055.58
427.971	4095.8
428.428	4130.54
428.885	4166.99
429.342	4193.38
429.799	4247.25
430.256	4257.17
430.713	4303.4
431.17	4314.23
431.627	4351.62
432.083	4391.04
432.54	4429.95
432.997	4464.87
433.454	4503.76
433.91	4538.32
434.367	4592.46
434.824	4631.75
435.28	4665.6
435.737	4711.62
436.193	4754.08
436.65	4788.32
437.106	4839.63
437.563	4869.6
438.019	4920.11
438.476	4954.96
438.932	4992.66
439.388	5016.51
439.845	5066
440.301	5095.57
440.757	5113.88
441.214	5145.48
441.67	5173.59
442.126	5209.64
442.582	5234.14
443.039	5267.86
443.495	5299.41
443.951	5335.92
444.407	5374.39
444.863	5451.71
445.319	5508.21
445.775	5545.96
446.231	5643.3
446.687	5702.88
447.143	5790.32
447.599	5876.38
448.055	5966.83
448.511	6032.25
448.967	6077.76
449.422	6153.59
449.878	6213.92
450.334	6259.69
450.79	6314.39
451.245	6355.27
451.701	6393.56
452.157	6422.33
452.612	6448.49
453.068	6459.91
453.524	6465.04
453.979	6476.5
454.435	6487.45
454.89	6532.21
455.346	6580.96
455.801	6613.71
456.257	6669.93
456.712	6729.6
457.168	6808.77
457.623	6889.79
458.078	6962.42
458.534	7031.85
458.989	7125.2
459.444	7228.75
459.899	7307.27
460.354	7460.19
460.81	7470.84
461.265	7564.32
461.72	7644.56
462.175	7757.68
462.63	7833.87
463.085	7966.46
463.54	8095.95
463.995	8217.06
464.45	8351.76
464.905	8482.02
465.36	8603.99
465.815	8675.81
466.27	8779.66
466.725	8862.62
467.18	8911.47
467.634	8984.58
468.089	9018.82
468.544	9095.58
468.999	9130.74
469.453	9155.61
469.908	9131.16
470.363	9114.32
470.817	9077.22
471.272	9018.02
471.726	8906.03
472.181	8801.93
472.635	8692.05
473.09	8627.43
473.544	8534.97
473.999	8438.13
474.453	8370.04
474.908	8328.69
475.362	8268.34
475.816	8208.19
476.271	8132.82
476.725	8078.17
477.179	8047.26
477.633	8044.1
478.087	8080.11
478.542	8136.42
478.996	8217.48
479.45	8250.12
479.904	8313.13
480.358	8358.72
480.812	8428.34
481.266	8473.34
481.72	8495.96
482.174	8522.61
482.628	8545.53
483.082	8529.53
483.536	8525.23
483.99	8484.39
484.444	8464.42
484.897	8405.51
485.351	8377.95
485.805	8336.2
486.259	8333.19
486.712	8326.2
487.166	8322.19
487.62	8342.22
488.073	8370.69
488.527	8420.63
488.981	8465
489.434	8518.79
489.888	8578.5
490.341	8626.4
490.795	8684.62
491.248	8711.68
491.701	8744.04
492.155	8749.91
492.608	8756.5
493.062	8747.51
493.515	8735.36
493.968	8703.89
494.421	8663.9
494.875	8629.76
495.328	8578.56
495.781	8543.54
496.234	8458.49
496.687	8408.75
497.14	8378.96
497.594	8348.04
498.047	8338.39
498.5	8317.98
498.953	8328.4
499.406	8331.24
499.859	8336.77
500.311	8356.81
500.764	8377.16
501.217	8390.52
501.67	8393.79
502.123	8421.14
502.576	8445.01
503.028	8485.96
503.481	8496.74
503.934	8504.36
504.387	8512.58
504.839	8537.13
505.292	8564.26
505.745	8569.04
506.197	8565.82
506.65	8608.17
507.102	8614.6
507.555	8628.16
508.007	8683.21
508.46	8661.39
508.912	8691.47
509.364	8722.07
509.817	8748.66
510.269	8756.28
510.721	8775.25
511.174	8801.61
511.626	8817.68
512.078	8860.45
512.531	8864.73
512.983	8889.9
513.435	8927.72
513.887	8932.74
514.339	8953.7
514.791	8962.59
515.243	8980.98
515.695	8987.87
516.147	9024.83
516.599	9030.84
517.051	9048.13
517.503	9058.81
517.955	9076.91
518.407	9092.12
518.859	9135.35
519.311	9117.84
519.762	9155.43
520.214	9176.27
520.666	9193.53
521.118	9195.95
521.569	9202.36
522.021	9230.22
522.473	9253.36
522.924	9239.19
523.376	9271.25
523.827	9294.49
524.279	9306.9
524.73	9308.84
525.182	9316.37
525.633	9353.97
526.085	9353.13
526.536	9371.27
526.987	9378.68
527.439	9387.67
527.89	9402
528.341	9393.13
528.793	9425.93
529.244	9426.08
529.695	9431.9
530.146	9457.11
530.597	9474.78
531.049	9467.48
531.5	9495.23
531.951	9503.26
532.402	9500.9
532.853	9526.45
533.304	9518.72
533.755	9557.14
534.206	9545.23
534.657	9580.19
535.108	9592.81
535.558	9570.94
536.009	9596.7
536.46	9605.67
536.911	9613.12
537.362	9638
537.812	9660.57
538.263	9666.28
538.714	9677.33
539.164	9687.51
539.615	9689.49
540.066	9709.28
540.516	9745.7
540.967	9760.03
541.417	9761.14
541.868	9761.53
542.318	9790.75
542.769	9799
543.219	9809.88
543.669	9826.9
544.12	9845.66
544.57	9857.63
545.02	9846.93
545.471	9879.59
545.921	9875.36
546.371	9877.29
546.821	9894.14
547.272	9904.19
547.722	9915.93
548.172	9937.09
548.622	9928.35
549.072	9942.84
549.522	9949.94
549.972	9944.97
550.422	9975.78
550.872	9985.22
551.322	9996.22
551.772	9996.82
552.222	10005.06
552.671	10026.09
553.121	10015.15
553.571	10063.23
554.021	10052.88
554.471	10056.33
554.92	10067.9
555.37	10091.14
555.82	10084.09
556.269	10087.96
556.719	10082.44
557.168	10078.83
557.618	10086.14
558.068	10091.97
558.517	10115.7
558.967	10127.52
559.416	10141.58
559.865	10135.68
560.315	10130.78
560.764	10103.97
561.213	10133.03
561.663	10135.69
562.112	10149.37
562.561	10160.41
563.011	10147.52
563.46	10163.01
563.909	10166.14
564.358	10174.38
564.807	10182.54
565.256	10190.58
565.705	10188.94
566.154	10216.43
566.603	10201.03
567.052	10206.88
567.501	10218.29
567.95	10216.58
568.399	10237.11
568.848	10233.22
569.297	10247.38
569.746	10246.18
570.195	10253.41
570.643	10272.48
571.092	10282
571.541	10281.55
571.989	10304.26
572.438	10293.37
572.887	10305.84
573.335	10318.53
573.784	10324.29
574.232	10318.34
574.681	10316.84
575.129	10324.28
575.578	10360.86
576.026	10342.02
576.475	10338.67
576.923	10341.79
577.372	10346.8
577.82	10351.15
578.268	10356.21
578.716	10348.67
579.165	10364.97
579.613	10384.82
580.061	10383.02
580.509	10369.5
580.957	10373.49
581.406	10401.3
581.854	10381.8
582.302	10402.91
582.75	10396.57
583.198	10416.56
583.646	10399.69
584.094	10406.42
584.542	10405.01
584.99	10380.61
585.437	10405.25
585.885	10395.26
586.333	10411.43
586.781	10396.86
587.229	10401.1
587.676	10390.39
588.124	10360.46
588.572	10357.85
589.019	10345.33
589.467	10313.79
589.915	10315.79
590.362	10286.84
590.81	10297.48
591.257	10278.35
591.705	10273.44
592.152	10250.7
592.6	10237.26
593.047	10215.23
593.494	10212.36
593.942	10161.56
594.389	10186.49
594.836	10152.44
595.284	10144.5
595.731	10154.45
596.178	10134.92
596.625	10131.04
597.072	10086.62
597.52	10093.43
597.967	10073.72
598.414	10068.36
598.861	10076.59
599.308	10057.49
599.755	10068.29
600.202	10045.62
600.649	10041.31
601.096	10039.4
601.543	10021.28
601.989	10039.13
602.436	10042.14
602.883	10044.1
603.33	10043.31
603.777	10028.83
604.223	10034.57
604.67	10039.13
605.117	10029.34
605.563	10023.09
606.01	10031.89
606.456	10014.26
606.903	10028.61
607.35	10033.42
607.796	10040.41
608.243	10049.37
608.689	10050.85
609.135	10061.82
609.582	10048.88
610.028	10066.58
610.474	10066.27
610.921	10081.85
611.367	10065.43
611.813	10087.57
612.26	10082.95
612.706	10109.41
613.152	10110.69
613.598	10135.57
614.044	10121.14
614.49	10110.54
614.936	10142.65
615.382	10133.63
615.828	10146.02
616.274	10156.55
616.72	10124.47
617.166	10136.8
617.612	10135.12
618.058	10151.09
618.504	10141.36
618.95	10124.25
619.395	10141.93
619.841	10157.71
620.287	10113.2
620.733	10102.22
621.178	10098.46
621.624	10090.9
622.069	10075.41
622.515	10069.7
622.961	10029.01
623.406	10032.74
623.852	10018.05
624.297	9982.8
624.743	9980.37
625.188	9945.28
625.633	9921.37
626.079	9890.22
626.524	9898.26
626.969	9881.26
627.415	9848
627.86	9826.19
628.305	9836.8
628.75	9820.44
629.196	9793.49
629.641	9779.36
630.086	9774.44
630.531	9757.63
630.976	9751.29
631.421	9714.44
631.866	9722.04
632.311	9698.68
632.756	9710.09
633.201	9669.1
633.646	9665.24
634.091	9651.16
634.535	9631.49
634.98	9666.89
635.425	9592.41
635.87	9589.39
636.314	9559.39
636.759	9564.87
637.204	9537.62
637.648	9545.4
638.093	9526.95
638.538	9502.55
638.982	9492.04
639.427	9481.92
639.871	9492.3
640.316	9472.35
640.76	9467.4
641.205	9482.49
641.649	9476.07
642.093	9478.75
642.538	9496.38
642.982	9525.62
643.426	9494.19
643.87	9541.81
644.315	9520.78
644.759	9533.2
645.203	9574.55
645.647	9585.49
646.091	9587.03
646.535	9607.07
646.979	9623.08
647.423	9618.45
647.867	9624.46
648.311	9617.15
648.755	9608.17
649.199	9591.68
649.643	9578.66
650.087	9548.22
650.531	9525.9
650.975	9509.94
651.418	9468.57
651.862	9462.92
652.306	9426.89
652.75	9362.59
653.193	9364.25
653.637	9308.72
654.08	9288.1
654.524	9247.04
654.968	9226.45
655.411	9205.63
655.855	9185.67
656.298	9160.03
656.741	9166.96
657.185	9167.42
657.628	9145.93
658.072	9157.21
658.515	9121.66
658.958	9128.12
659.401	9150.77
659.845	9133.8
660.288	9136.53
660.731	9124.38
661.174	9158.64
661.617	9158.05
662.06	9179.24
662.504	9189.66
662.947	9181.35
663.39	9203.19
663.833	9226.34
664.276	9240.62
664.718	9245.56
665.161	9263.86
665.604	9258.13
666.047	9281.08
666.49	9289.87
666.933	9289.53
667.375	9315.5
667.818	9320.02
668.261	9329.31
668.703	9322.86
669.146	9333.85
669.589	9343.11
670.031	9348.41
670.474	9360.46
670.916	9367.57
671.359	9378.98
671.801	9366.31
672.244	9378.24
672.686	9388.58
673.129	9392.05
673.571	9391.96
674.013	9397.67
674.456	9401.16
674.898	9408.13
675.34	9398.68
675.782	9399.43
676.224	9422.67
676.667	9398.42
677.109	9431.41
677.551	9444.46
677.993	9456.91
678.435	9477.41
678.877	9550.79
679.319	9579.3
679.761	9656.63
680.203	9726.03
680.645	9760
681.087	9786.62
681.529	9831.77
681.97	9885.49
682.412	9920.09
682.854	9949.7
683.296	9975.35
683.737	9981.51
684.179	10026.59
684.621	10049.7
685.062	10028.38
685.504	10031.25
685.945	10034.15
686.387	10016.34
686.828	10007.48
687.27	9980.78
687.711	9971.61
688.153	9924.44
688.594	9923.89
689.035	9849.44
689.477	9831.31
689.918	9781.38
690.359	9740.62
690.801	9670.86
691.242	9630.23
691.683	9565.83
692.124	9496.65
692.565	9424.8
693.006	9380.16
693.447	9300.83
693.889	9253.47
694.33	9196.67
694.771	9126.39
695.211	9082.72
695.652	9031.35
696.093	8996.45
696.534	8955.24
696.975	8901.23
697.416	8862.15
697.857	8825.7
698.297	8807.04
698.738	8779.39
699.179	8760.61
699.619	8736.84
700.06	8706.87
700.501	8708.94
700.941	8676.84
701.382	8632.7
701.822	8628.5
702.263	8624.36
702.703	8615.53
703.144	8608.95
703.584	8606.84
704.025	8620.25
704.465	8594.49
704.905	8625.95
705.346	8637.7
705.786	8659.97
706.226	8698.43
706.666	8707.93
707.106	8736.5
707.547	8782.52
707.987	8843.83
708.427	8909.92
708.867	8952.08
709.307	9020.26
709.747	9072.7
710.187	9112.7
710.627	9169.07
711.067	9203.02
711.507	9254.49
711.947	9270.34
712.386	9294.02
712.826	9309.29
713.266	9308.34
713.706	9310.17
714.145	9301.71
714.585	9281.61
715.025	9248.88
715.464	9215.86
715.904	9156.84
716.344	9101.5
716.783	9048.17
717.223	8973.35
717.662	8916.98
718.102	8862.65
718.541	8794.52
718.98	8717.17
719.42	8677.78
719.859	8625.13
720.298	8581.62
720.738	8525.82
721.177	8495.78
721.616	8455.95
722.055	8415.34
722.495	8401.46
722.934	8385.29
723.373	8378.95
723.812	8387.46
724.251	8401.64
724.69	8429.2
725.129	8447.79
725.568	8493.63
726.007	8548.47
726.446	8585.2
726.885	8662.3
727.323	8706.93
727.762	8778.5
728.201	8848.96
728.64	8935.86
729.079	9030.42
729.517	9129.47
729.956	9194.44
730.395	9269.97
730.833	9331.92
731.272	9380.77
731.71	9404.36
732.149	9411.91
732.587	9409.06
733.026	9376.16
733.464	9371.97
733.903	9324.24
734.341	9271.09
734.779	9201.38
735.218	9146.48
735.656	9091.57
736.094	9024.79
736.532	8952.58
736.971	8904.92
737.409	8840.18
737.847	8817.86
738.285	8780.37
738.723	8769.77
739.161	8756.26
739.599	8734.83
740.037	8778.58
740.475	8736.48
740.913	8739.83
741.351	8714.89
741.789	8707.15
742.227	8684.3
742.665	8666.72
743.102	8645.32
743.54	8614.8
743.978	8599.57
744.416	8557.62
744.853	8511.96
745.291	8469
745.729	8438.78
746.166	8410.26
746.604	8390.35
747.041	8358.98
747.479	8345.48
747.916	8315.72
748.354	8302.18
748.791	8285.78
749.228	8259.23
749.666	8241.01
750.103	8228
750.54	8205.95
750.978	8171.57
751.415	8155.79
751.852	8129.33
752.289	8109.25
752.726	8053.82
753.164	8033.12
753.601	7991.75
754.038	7975.56
754.475	7955.35
754.912	7937.52
755.349	7926.42
755.786	7902.25
756.223	7922.62
756.659	7940.71
757.096	7986.99
757.533	8015.75
757.97	8066.44
758.407	8141.86
758.843	8244.65
759.28	8404.83
759.717	8640.97
760.153	8996.29
760.59	9407.16
761.027	9831.66
761.463	10234.39
761.9	10554.07
762.336	10792.05
762.773	10973.08
763.209	11088.45
763.646	11154.26
764.082	11156.42
764.518	11136.66
764.955	11083.02
765.391	10947.92
765.827	10755.66
766.263	10495.28
766.7	10156.34
767.136	9685.99
767.572	9266.02
768.008	8860.96
768.444	8487.41
768.88	8130.23
769.316	7859.41
769.752	7620.85
770.188	7411.52
770.624	7277.4
771.06	7143.26
771.496	7036.59
771.932	6933.91
772.367	6851.71
772.803	6784.64
773.239	6695.54
773.675	6633.22
774.11	6583.59
774.546	6525.42
774.982	6454.23
775.417	6421.79
775.853	6367.61
776.288	6333.97
776.724	6290.33
777.159	6254.31
777.595	6214.15
778.03	6185.93
778.466	6181.09
778.901	6154.4
779.336	6155.12
779.772	6140.98
780.207	6133.99
780.642	6157.09
781.077	6116.85
781.513	6133.83
781.948	6120.69
782.383	6145.65
782.818	6114.83
783.253	6120.68
783.688	6136.78
784.123	6171.81
784.558	6215.96
784.993	6278.67
785.428	6345.18
785.863	6434.72
786.298	6508
786.733	6591.15
787.167	6680.1
787.602	6723.89
788.037	6808.61
788.472	6837.11
788.906	6866.8
789.341	6891.23
789.776	6913.74
790.21	6920.02
790.645	6875.39
791.079	6879.22
791.514	6819.18
791.948	6780.13
792.383	6726.73
792.817	6701.44
793.252	6638.24
793.686	6608.63
794.12	6607.62
794.554	6605.79
794.989	6608.77
795.423	6621.73
795.857	6625.53
796.291	6640.84
796.725	6654.65
797.16	6668.1
797.594	6688.29
798.028	6687.26
798.462	6699.1
798.896	6685.14
799.33	6650.12
799.764	6629.81
800.198	6587.97
800.631	6554.89
801.065	6486.75
801.499	6440.01
801.933	6395.74
802.367	6385.05
802.8	6301.77
803.234	6261.53
803.668	6245.86
804.101	6195.34
804.535	6178.17
804.968	6163.06
805.402	6177.84
805.835	6195.04
806.269	6182.83
806.702	6209.82
807.136	6226.08
807.569	6265.91
808.003	6306.05
808.436	6330.76
808.869	6378.1
809.302	6417.54
809.736	6468.89
810.169	6533.63
810.602	6586.87
811.035	6642.79
811.468	6732.01
811.901	6828.23
812.335	6921.12
812.768	7030.49
813.201	7160.32
813.633	7332.85
814.066	7524.49
814.499	7754.46
814.932	8016.51
815.365	8317.71
815.798	8722.64
816.231	9181.92
816.663	9751
817.096	10449.89
817.529	11386.74
817.961	12611.3
818.394	14318.9
818.827	16820.06
819.259	20127.11
819.692	23829.22
820.124	27477.27
820.557	30702.16
820.989	33459.81
821.422	35713.76
821.854	37575.67
822.286	39048.2
822.719	40181.19
823.151	41156.28
823.583	42058.69
824.016	42850.18
824.448	43339.58
824.88	43172.09
825.312	42142.41
825.744	40248.51
826.176	37805.9
826.608	35157.01
827.04	32660.53
827.472	30282.44
827.904	28151.31
828.336	26291.09
828.768	24721.54
829.2	23360.04
829.632	22155.4
830.064	21090.87
830.495	20099.98
830.927	19286.64
831.359	18602.24
831.791	18029.22
832.222	17538.47
832.654	17098.09
833.086	16710.78
833.517	16401.47
833.949	16090.91
834.38	15759.89
834.812	15432.7
835.243	15061.3
835.674	14631.73
836.106	14160.48
836.537	13665.48
836.969	13161.95
837.4	12601.51
837.831	12023.61
838.262	11464.67
838.693	10926.72
839.125	10451.15
839.556	9995.19
839.987	9651.1
840.418	9319.21
840.849	9019.64
841.28	8727.56
841.711	8435.92
842.142	8170.66
842.573	7888.83
843.004	7530.73
843.435	7094.77
843.865	6639.85
844.296	6216.37
844.727	5875.52
845.158	5530.55
845.589	5285.29
846.019	5054.53
846.45	4893.41
846.88	4738.32
847.311	4627.68
847.742	4542.02
848.172	4460.91
848.603	4385.67
849.033	4337.65
849.464	4296.45
849.894	4231.24
850.324	4208.97
850.755	4175.52
851.185	4145.85
851.615	4115.65
852.045	4105.14
852.476	4110.19
852.906	4101.64
853.336	4107.62
853.766	4103.54
854.196	4106.75
854.626	4122.75
855.056	4158.76
855.486	4161.21
855.916	4169.6
856.346	4204.72
856.776	4220.27
857.206	4246.64
857.636	4257.17
858.066	4272.57
858.495	4294.78
858.925	4328.49
859.355	4366.29
859.785	4393.94
860.214	4436.33
860.644	4456.54
861.074	4540.89
861.503	4570.72
861.933	4626.09
862.362	4694.27
862.792	4768.84
863.221	4851.35
863.651	4938.3
864.08	5017.85
864.509	5114.66
864.939	5206.12
865.368	5323.87
865.797	5436.45
866.226	5543.78
866.656	5687.35
867.085	5797.33
867.514	5922.42
867.943	6058.13
868.372	6192.83
868.801	6335.36
869.23	6503.09
869.659	6680.15
870.088	6853.58
870.517	7026.12
870.946	7239.04
871.375	7432.48
871.804	7691.8
872.232	7918.89
872.661	8194.34
873.09	8525.67
873.519	8854.1
873.947	9206.31
874.376	9638.28
874.804	10147.86
875.233	10780.14
875.662	11510.12
876.09	12476.29
876.519	13743.56
876.947	15425.46
877.375	17724.23
877.804	20534.07
878.232	23594.96
878.66	26830.28
879.089	29980.77
879.517	32852.68
879.945	35347.65
880.373	37388.55
880.802	38954.34
881.23	40115.9
881.658	40813.73
882.086	41146.14
882.514	40986.11
882.942	40402.6
883.37	39277.72
883.798	37609.94
884.226	35368.43
884.654	32868.14
885.082	30192.5
885.51	27494.83
885.937	24953.7
886.365	22634.44
886.793	20613
887.221	18920.4
887.648	17500.35
888.076	16364.17
888.503	15514.51
888.931	14861.3
889.359	14433.1
889.786	14255.96
890.214	14274.93
890.641	14592.61
891.068	15240.42
891.496	16088.61
891.923	16964.61
892.351	17817.54
892.778	18499.12
893.205	18995.37
893.632	19338.59
894.06	19631.59
894.487	19753.67
894.914	19817.5
895.341	19694.31
895.768	19476.86
896.195	19162.54
896.622	18706.24
897.049	18109.36
897.476	17329.34
897.903	16371.58
898.33	15479.82
898.757	14650.56
899.184	14057.78
899.61	13744.96
900.037	13836.51
900.464	14534
900.891	15654.03
901.317	16834.7
901.744	17809.39
902.17	18596.16
902.597	19100.06
903.024	19464.82
903.45	19630.6
903.877	19700.51
904.303	19664.15
904.729	19477.65
905.156	19180.74
905.582	18793.82
906.008	18210.33
906.435	17450.25
906.861	16347.64
907.287	15001.42
907.713	13663.68
908.14	12517.08
908.566	11633.87
908.992	10987.08
909.418	10596.54
909.844	10448.02
910.27	10539.41
910.696	10910.99
911.122	11565.44
911.548	12584.69
911.974	14008.18
912.4	15664.43
912.825	17432.01
913.251	19072.25
913.677	20498.45
914.103	21649.03
914.528	22531.99
914.954	23164.98
915.38	23645.89
915.805	23867.26
916.231	23865.41
916.656	23670.59
917.082	23285.23
917.507	22586.47
917.933	21633.54
918.358	20372.62
918.784	18834.35
919.209	17242.99
919.634	15693.44
920.059	14328.94
920.485	13145.94
920.91	12077.64
921.335	11243.1
921.76	10471.29
922.185	9837.4
922.61	9275.86
923.036	8800.15
923.461	8368.33
923.886	8002.59
924.31	7648.31
924.735	7367.42
925.16	7120.6
925.585	6868.95
926.01	6665.91
926.435	6512.68
926.86	6358.1
927.284	6249.74
927.709	6152.18
928.134	6071.63
928.558	6012.68
928.983	5955.9
929.408	5920.71
929.832	5932.02
930.257	5916
930.681	5931.38
931.106	5980.34
931.53	6001.6
931.954	6062.78
932.379	6151.01
932.803	6244.9
933.227	6418.19
933.652	6552.9
934.076	6776.61
934.5	7016.98
934.924	7268.6
935.348	7531.12
935.772	7785.01
936.197	8054.42
936.621	8297.97
937.045	8533.75
937.469	8727.51
937.893	8913.72
938.316	9074.04
938.74	9200.78
939.164	9279.45
939.588	9345.46
940.012	9338.89
940.436	9311.6
940.859	9258.7
941.283	9198.21
941.707	9135.41
942.13	9059.51
942.554	8985.44
942.977	8905.02
943.401	8836.13
943.824	8801.05
944.248	8755.48
944.671	8729.39
945.095	8732.06
945.518	8708.02
945.941	8729.68
946.365	8777.78
946.788	8790.26
947.211	8836.56
947.634	8879.16
948.058	8902.41
948.481	8897.29
948.904	8875.01
949.327	8816.34
949.75	8753.69
950.173	8685.99
950.596	8560.46
951.019	8424.17
951.442	8250.55
951.865	8053.6
952.288	7851.2
952.71	7612.82
953.133	7348.57
953.556	7091.36
953.979	6793.67
954.401	6545.77
954.824	6258.98
955.247	5994.76
955.669	5748.52
956.092	5525.41
956.514	5302.64
956.937	5109.87
957.359	4964.4
957.782	4796.34
958.204	4638.8
958.627	4532.43
959.049	4406.85
959.471	4312.65
959.893	4224.2
960.316	4175.15
960.738	4099.51
961.16	4054.24
961.582	4030.38
962.004	3995.14
962.426	4003.22
962.848	4012.9
963.27	4012.96
963.692	4043.78
964.114	4083.06
964.536	4154.57
964.958	4200.83
965.38	4293.02
965.802	4374
966.224	4473.31
966.645	4571.13
967.067	4655.53
967.489	4747.17
967.911	4854.95
968.332	4953.51
968.754	5060.13
969.175	5136.42
969.597	5234.56
970.018	5313.67
970.44	5416.41
970.861	5500.11
971.283	5558.42
971.704	5659.1
972.125	5747.77
972.547	5863.73
972.968	6033.67
973.389	6225.88
973.81	6497.38
974.232	6829.02
974.653	7291.42
975.074	7909.77
975.495	8664.05
975.916	9559.8
976.337	10383.17
976.758	11123.18
977.179	11691.6
977.6	12108.39
978.021	12340.09
978.442	12478.06
978.862	12500.17
979.283	12387.72
979.704	12201.52
980.125	11924.56
980.545	11524.1
980.966	11026.36
981.387	10403.17
981.807	9650.97
982.228	8807.26
982.648	7995.13
983.069	7276.44
983.489	6687.89
983.91	6239.93
984.33	5958.15
984.75	5774.01
985.171	5696.08
985.591	5694.66
986.011	5786.79
986.431	5976.98
986.852	6244.79
987.272	6666.37
987.692	7204.97
988.112	7882.41
988.532	8598.52
988.952	9308.73
989.372	9938.52
989.792	10465.92
990.212	10882.47
990.632	11182.07
991.052	11357.3
991.472	11463.41
991.892	11435.43
992.311	11334.27
992.731	11123.94
993.151	10815.14
993.57	10385.43
993.99	9853.96
994.41	9206.06
994.829	8469.07
995.249	7741.08
995.668	7061.44
996.088	6419.2
996.507	5902.54
996.927	5443.7
997.346	5043.82
997.765	4712.78
998.185	4448.56
998.604	4190.48
999.023	3970.34
999.442	3773.88
999.862	3628.01
1000.281	3498.08
1000.7	3370.08
1001.119	3247.97
1001.538	3172.09
1001.957	3075.85
1002.376	3017.32
1002.795	2942.4
1003.214	2862.95
1003.633	2833.84
1004.052	2779.41
1004.471	2740.25
1004.889	2706.36
1005.308	2688.83
1005.727	2659.04
1006.146	2678.09
1006.564	2643.47
1006.983	2662.55
1007.401	2680.89
1007.82	2693.98
1008.238	2707.37
1008.657	2729.14
1009.075	2750.66
1009.494	2764.32
1009.912	2798.57
1010.331	2791.39
1010.749	2779.66
1011.167	2791.79
1011.586	2764.15
1012.004	2747.94
1012.422	2714.56
1012.84	2682.65
1013.258	2649.2
1013.676	2571.86
1014.094	2503.71
1014.512	2414.95
1014.93	2361.56
1015.348	2294.77
1015.766	2221.1
1016.184	2150.67
1016.602	2078.95
1017.02	2012.37
1017.438	1938.32
1017.856	1864.35
1018.273	1823.57
1018.691	1756.92
1019.109	1705.71
1019.526	1667.87
1019.944	1611.65
1020.361	1558.45
1020.779	1518.35
1021.197	1482.68
1021.614	1439.03
1022.031	1415.92
1022.449	1372.93
1022.866	1347.65
1023.284	1318.11
1023.701	1294.03
1024.118	1267.91
1024.535	1246.1
1024.953	1207.29
1025.37	1208.3
1025.787	1157.21
1026.204	1159.99
1026.621	1144.54
1027.038	1125.21
1027.455	1101.12
1027.872	1096.06
1028.289	1081.73
1028.706	1073.3
1029.123	1056.08
1029.54	1040.44
1029.956	1022.84
1030.373	1033.94
1030.79	1006.61
1031.207	1005.28
1031.623	993.31
1032.04	984.55
1032.457	956.18
1032.873	957.41
1033.29	947.29
1033.706	926.64
1034.123	931.02
1034.539	909.31
1034.956	884.34
1035.372	869.37
1035.788	868.17
1036.205	858.49
1036.621	845.67
1037.037	844.38
1037.453	833.55
1037.87	828.53
1038.286	817.78
1038.702	794.49
1039.118	791.51
1039.534	801.99
1039.95	777.83
1040.366	763.25
1040.782	783.88
1041.198	772.27
1041.614	760.68
1042.029	759.31
1042.445	747.31
1042.861	730.78
1043.277	760.91
1043.693	738.52
1044.108	733.19
1044.524	739.55
1044.939	754.33
1045.355	743.67
1045.771	730.85
1046.186	719.72
1046.602	713.35
1047.017	717.32
1047.432	721.91
1047.848	727
1048.263	723.62
1048.678	715.5
1049.094	728.52
1049.509	723.45
1049.924	710.75
1050.339	716.18
1050.754	709.08
1051.17	714.3
1051.585	690.42
1052	694.14
1052.415	686.67
1052.83	670.41
1053.245	687.16
1053.66	663.13
1054.074	662.58
1054.489	655.27
1054.904	623.47
1055.319	636.39
1055.734	603.79
1056.148	591.3
1056.563	579.38
1056.978	572.74
1057.392	561.31
1057.807	540.18
1058.221	533.7
1058.636	543.56
1059.05	523.41
1059.465	512.62
1059.879	507.23
1060.293	500.5
1060.708	500.58
1061.122	471.16
1061.536	488.15
1061.951	474.76
1062.365	458.82
1062.779	448.97
1063.193	469.67
1063.607	440.62
1064.021	430.19
1064.435	432.27
1064.849	426.66
1065.263	423.62
1065.677	424.33
1066.091	428.39
1066.505	432.74
1066.919	408.49
1067.333	408.82
1067.746	429.06
1068.16	404.65
1068.574	409.21
1068.987	407.1
1069.401	408.12
1069.815	391.23
1070.228	391.26
1070.642	394.7
1071.055	380.9
1071.469	385.31
1071.882	385.55
1072.296	391.87
1072.709	384.44
1073.122	379.1
1073.536	375.19
1073.949	372.19
1074.362	385.55
1074.775	389.74
1075.188	384.97
1075.601	386.13
1076.015	381.26
1076.428	374.46
1076.841	371.46
1077.254	394.29
1077.667	382.06
1078.079	389.46
1078.492	389.21
1078.905	387.18
1079.318	401.57
1079.731	391.1
1080.144	413.99
1080.556	403.14
1080.969	404.98
1081.382	399.05
1081.794	405.27
1082.207	401.82
1082.619	405.82
1083.032	383.21
1083.444	379.02
1083.857	374.09
1084.269	369.03
1084.682	361.25
1085.094	351.78
1085.506	350.77
1085.918	340.93
1086.331	329.18
1086.743	320.31
1087.155	326.95
1087.567	321.61
1087.979	304.45
1088.391	302.51
1088.803	303.52
1089.215	289.77
1089.627	293.65
1090.039	282.97
1090.451	284.34
1090.863	280.58
1091.275	269.65
1091.687	268.78
1092.098	252.63
1092.51	247.11
1092.922	251.8
1093.334	240.53
1093.745	229.21
1094.157	237.47
1094.568	229.39
1094.98	213.86
1095.391	209.75
1095.803	217.43
1096.214	213.29
1096.626	206.81
1097.037	203.43
1097.448	201.78
1097.86	205.97
1098.271	198.84
1098.682	188.04
1099.093	193.31
1099.504	180.66
1099.916	188.93
1100.327	184.18
1100.738	189.56
1101.149	178.32
1101.56	172.56
1101.971	198.55
1102.381	178.29
1102.792	177.65
1103.203	177.73
1103.614	171.81
1104.025	165.72
1104.436	169.74
1104.846	175.03
1105.257	201.65
1105.668	165.92
1106.078	167.29
1106.489	163.74
1106.899	156.21
1107.31	159.76
1107.72	157.59
1108.131	163.79
1108.541	155.99
1108.951	165.04
1109.362	156.83
1109.772	154.06
1110.182	144.63
1110.592	157.46
1111.003	-5.18
1111.413	-4.2
1111.823	-4.22
1112.233	-5.67
