Data from T_3_B_MAYP1165941__0__20-08-02-942.txt Node

Date: Wed May 31 20:08:02 JST 2023
User: takis
Spectrometer: MAYP116594
Trigger mode: 0
Integration Time (sec): 5.000000E-2
Scans to average: 100
Electric dark correction enabled: true
Nonlinearity correction enabled: false
Boxcar width: 0
XAxis mode: Wavelengths
Number of Pixels in Spectrum: 2068
>>>>>Begin Spectral Data<<<<<
199.712	844.66
200.181	-156.88
200.65	30.14
201.119	-10.7
201.587	122.51
202.056	123.37
202.525	138.55
202.993	151.26
203.462	149.81
203.93	135.91
204.399	145.39
204.867	135.49
205.336	137
205.804	140.28
206.273	133.56
206.741	125.14
207.21	125.85
207.678	132.26
208.146	129.63
208.615	131.36
209.083	129.7
209.551	137.88
210.02	135.83
210.488	136.94
210.956	144.36
211.424	140.31
211.893	146.27
212.361	140.23
212.829	128.79
213.297	145.19
213.765	136.72
214.233	140.24
214.701	136.76
215.169	128.1
215.637	139.18
216.105	130.82
216.573	154.07
217.041	130.79
217.509	135.74
217.977	157.2
218.445	138.57
218.913	146.45
219.381	138.74
219.848	140.36
220.316	147.37
220.784	145.1
221.252	134.18
221.719	138.87
222.187	135.54
222.655	137.32
223.122	141.58
223.59	144.8
224.058	147.47
224.525	127.55
224.993	133.77
225.46	143.77
225.928	136
226.395	149.12
226.863	142.21
227.33	144.33
227.798	147.18
228.265	147.72
228.732	135.32
229.2	125.39
229.667	141.38
230.134	136.72
230.602	128.56
231.069	148.76
231.536	139.93
232.003	130.24
232.47	147.74
232.938	132.91
233.405	135.65
233.872	134.82
234.339	135.05
234.806	135.32
235.273	138.37
235.74	143.2
236.207	140.32
236.674	142.13
237.141	144.4
237.608	133.61
238.075	132.62
238.542	123.44
239.009	140.54
239.476	137.08
239.942	146.2
240.409	134.15
240.876	133.15
241.343	137.92
241.809	139.24
242.276	157.87
242.743	128.14
243.21	133.17
243.676	133.39
244.143	149.32
244.609	145.14
245.076	137.42
245.542	128.87
246.009	130.91
246.476	141.15
246.942	136.5
247.408	126.06
247.875	139.67
248.341	138.02
248.808	137.47
249.274	138.75
249.74	142.08
250.207	151.43
250.673	138.86
251.139	149.6
251.606	139.83
252.072	150.69
252.538	136.64
253.004	137.7
253.47	144.72
253.936	143.01
254.403	145.5
254.869	141.04
255.335	134.75
255.801	137.52
256.267	130.25
256.733	141.48
257.199	143.47
257.665	130.79
258.131	128.93
258.596	145.07
259.062	146.85
259.528	134.31
259.994	132.28
260.46	137.46
260.926	126.07
261.391	128.14
261.857	143.02
262.323	139.89
262.789	137.27
263.254	147.6
263.72	133.21
264.185	135.96
264.651	146.17
265.117	140.98
265.582	143.64
266.048	143.34
266.513	134.74
266.979	135.65
267.444	131.82
267.91	133.59
268.375	135.3
268.84	116.87
269.306	142.32
269.771	133.83
270.236	134.56
270.702	146.69
271.167	130.67
271.632	143.45
272.098	137.81
272.563	135.85
273.028	129.88
273.493	128.6
273.958	139.09
274.423	133.04
274.888	145.88
275.353	126.96
275.819	130.67
276.284	128.75
276.749	138.21
277.214	148.01
277.678	149.98
278.143	129.37
278.608	135.03
279.073	134.36
279.538	143.37
280.003	131.54
280.468	143.23
280.932	135.17
281.397	138.3
281.862	141.52
282.327	132.22
282.791	146.15
283.256	130.44
283.721	135.17
284.185	139.44
284.65	138.66
285.114	134.86
285.579	131.93
286.044	138.11
286.508	126.49
286.973	143.88
287.437	147.28
287.901	130.44
288.366	153.79
288.83	137.38
289.295	143.85
289.759	124.45
290.223	141.44
290.687	138.45
291.152	150.13
291.616	137.94
292.08	139.78
292.544	140.89
293.009	141.34
293.473	155.98
293.937	144.13
294.401	135.42
294.865	149.94
295.329	139.66
295.793	125.35
296.257	131.61
296.721	130.02
297.185	139.73
297.649	126.86
298.113	132.4
298.577	133.73
299.041	134.89
299.505	147.45
299.968	126.16
300.432	150.91
300.896	140.54
301.36	149.63
301.823	146.12
302.287	127.18
302.751	132.93
303.214	129.09
303.678	140.76
304.142	136.4
304.605	126.98
305.069	146.61
305.532	154.15
305.996	145.82
306.459	142.03
306.923	146.64
307.386	127.37
307.85	126.22
308.313	130.52
308.776	130.58
309.24	136.4
309.703	138.3
310.166	147.12
310.63	135.72
311.093	131.78
311.556	146.02
312.019	130.85
312.482	130.06
312.946	135.63
313.409	139.38
313.872	130.7
314.335	141.5
314.798	135.63
315.261	149.68
315.724	125.12
316.187	141.99
316.65	128.6
317.113	126.29
317.576	142.35
318.039	137.59
318.502	147
318.964	130.56
319.427	135.99
319.89	130.8
320.353	145.84
320.816	129.78
321.278	143.31
321.741	134.22
322.204	132.05
322.666	136.04
323.129	134.45
323.592	139.41
324.054	135.56
324.517	137.39
324.979	125.63
325.442	130.78
325.904	135.94
326.367	146.12
326.829	128.41
327.292	144.42
327.754	122.15
328.216	129.13
328.679	135.89
329.141	133.39
329.603	149.26
330.066	137.09
330.528	132.06
330.99	129.9
331.452	142.11
331.914	131.62
332.377	137.14
332.839	130.11
333.301	137.87
333.763	145.99
334.225	134.88
334.687	129.18
335.149	143.91
335.611	122.28
336.073	131.62
336.535	139.22
336.997	142.23
337.459	130.24
337.92	145.64
338.382	142.74
338.844	148.61
339.306	139.97
339.768	132.23
340.229	150.83
340.691	138.47
341.153	144.9
341.614	133.16
342.076	122.99
342.538	127.63
342.999	133.64
343.461	137.76
343.922	149.22
344.384	141.48
344.845	138.05
345.307	130.74
345.768	172.7
346.23	138.87
346.691	125.96
347.153	145.77
347.614	134.07
348.075	128.52
348.536	135.86
348.998	134.5
349.459	140.67
349.92	170.14
350.381	134.5
350.843	150.15
351.304	137.93
351.765	151.44
352.226	118.99
352.687	132
353.148	131.96
353.609	145.09
354.07	141.57
354.531	141.51
354.992	134.09
355.453	139.57
355.914	147.93
356.375	153.68
356.836	131.17
357.297	133.05
357.757	134.77
358.218	128.14
358.679	130.79
359.14	137.38
359.6	135.43
360.061	148.41
360.522	138.83
360.982	138.86
361.443	137.86
361.904	135.69
362.364	145.59
362.825	150.74
363.285	155.02
363.746	154.52
364.206	148.96
364.667	139.49
365.127	141.46
365.588	146.69
366.048	148.77
366.508	152.04
366.969	138.86
367.429	149.7
367.889	152.77
368.349	146.6
368.81	149.08
369.27	155.33
369.73	160.76
370.19	148.54
370.65	159.38
371.11	158.53
371.57	164.16
372.031	173
372.491	188.12
372.951	172.52
373.411	194.04
373.871	184.12
374.33	199.13
374.79	183.01
375.25	203.12
375.71	238.78
376.17	216.32
376.63	228.96
377.09	251.88
377.549	239.39
378.009	244.68
378.469	267.23
378.928	277.97
379.388	270.98
379.848	303.1
380.307	320.63
380.767	333.93
381.227	330.36
381.686	355.96
382.146	392.36
382.605	394.29
383.065	412.12
383.524	412.12
383.983	455.74
384.443	459.34
384.902	469.25
385.361	504.12
385.821	500.41
386.28	548.79
386.739	566.31
387.199	580.77
387.658	614.33
388.117	620.1
388.576	660.25
389.035	684.2
389.494	701.17
389.954	748.08
390.413	775.44
390.872	799.44
391.331	857.58
391.79	874.72
392.249	908.97
392.708	938.66
393.166	987.91
393.625	1033.45
394.084	1083.27
394.543	1099.27
395.002	1159.26
395.461	1191.55
395.919	1230.95
396.378	1269.68
396.837	1324.87
397.296	1358.76
397.754	1429.65
398.213	1457.38
398.672	1526.22
399.13	1551.71
399.589	1581.69
400.047	1628.88
400.506	1672.28
400.964	1718.23
401.423	1731.54
401.881	1797.82
402.34	1836.16
402.798	1883.7
403.256	1938.02
403.715	1977.44
404.173	2026.64
404.631	2058.63
405.09	2127.21
405.548	2151.28
406.006	2209.32
406.464	2260.51
406.923	2314.25
407.381	2355.63
407.839	2399.02
408.297	2472.2
408.755	2507.56
409.213	2540.74
409.671	2580.17
410.129	2654.46
410.587	2706.92
411.045	2735.07
411.503	2785.43
411.961	2811.23
412.419	2863.43
412.876	2908.8
413.334	2936.04
413.792	2979.34
414.25	3032.46
414.708	3080.89
415.165	3127.59
415.623	3177.27
416.081	3204.71
416.538	3271.48
416.996	3303.25
417.454	3353.41
417.911	3394.33
418.369	3436.52
418.826	3484.44
419.284	3493.52
419.741	3544.46
420.199	3575.08
420.656	3640.08
421.113	3660.47
421.571	3679.21
422.028	3715.07
422.485	3738.18
422.943	3778.32
423.4	3800.04
423.857	3825.65
424.314	3844.3
424.772	3880.13
425.229	3916.86
425.686	3949.71
426.143	3967.23
426.6	4018
427.057	4048.64
427.514	4061.03
427.971	4103.32
428.428	4133.2
428.885	4165.73
429.342	4206.21
429.799	4253.78
430.256	4259.65
430.713	4310.88
431.17	4330.56
431.627	4371.54
432.083	4402.06
432.54	4428.98
432.997	4471.45
433.454	4512.45
433.91	4551.59
434.367	4594.47
434.824	4640.11
435.28	4669.38
435.737	4718.75
436.193	4756.02
436.65	4792.26
437.106	4846.31
437.563	4884.21
438.019	4935.81
438.476	4960.9
438.932	5001.47
439.388	5032.89
439.845	5072.14
440.301	5094.01
440.757	5125.99
441.214	5155.09
441.67	5181.46
442.126	5210.97
442.582	5234.65
443.039	5283.9
443.495	5300.81
443.951	5345.24
444.407	5380.04
444.863	5462.22
445.319	5514.12
445.775	5560.67
446.231	5649.15
446.687	5714
447.143	5792.26
447.599	5883.61
448.055	5969.3
448.511	6031.74
448.967	6086.58
449.422	6154.21
449.878	6220.36
450.334	6267.88
450.79	6313.66
451.245	6366.77
451.701	6400.88
452.157	6443.78
452.612	6448.3
453.068	6463.11
453.524	6475.13
453.979	6493.3
454.435	6496.21
454.89	6538.9
455.346	6594.67
455.801	6616.11
456.257	6683.33
456.712	6727.16
457.168	6819.89
457.623	6897.52
458.078	6961.11
458.534	7049.66
458.989	7143.96
459.444	7230
459.899	7320.85
460.354	7466.55
460.81	7474.32
461.265	7567.01
461.72	7654.77
462.175	7754.1
462.63	7841.09
463.085	7966.59
463.54	8095.94
463.995	8236.14
464.45	8355.72
464.905	8489.33
465.36	8598.01
465.815	8689.9
466.27	8791.42
466.725	8862.31
467.18	8927.79
467.634	8972.42
468.089	9022.91
468.544	9103.29
468.999	9141.92
469.453	9165.48
469.908	9139.57
470.363	9113.64
470.817	9085.37
471.272	9026.86
471.726	8894.66
472.181	8808.86
472.635	8708.03
473.09	8616.84
473.544	8535.63
473.999	8446.88
474.453	8372.86
474.908	8327.99
475.362	8264.91
475.816	8206.33
476.271	8137.78
476.725	8088.67
477.179	8055.04
477.633	8069.83
478.087	8091.79
478.542	8138.49
478.996	8220.61
479.45	8255.1
479.904	8325.67
480.358	8368.49
480.812	8425.23
481.266	8466.82
481.72	8494.69
482.174	8518.12
482.628	8531.84
483.082	8543.47
483.536	8532.8
483.99	8490.2
484.444	8464.3
484.897	8420.89
485.351	8383.94
485.805	8347.15
486.259	8325.46
486.712	8334.02
487.166	8326.2
487.62	8347.26
488.073	8383.5
488.527	8418.71
488.981	8470.27
489.434	8522.88
489.888	8578.08
490.341	8635.04
490.795	8679.46
491.248	8708.51
491.701	8739.94
492.155	8763.16
492.608	8767.04
493.062	8754.94
493.515	8733.51
493.968	8706.51
494.421	8678.7
494.875	8627.96
495.328	8587.19
495.781	8537.57
496.234	8465.48
496.687	8415.39
497.14	8390.51
497.594	8361.88
498.047	8346.83
498.5	8324.62
498.953	8324.26
499.406	8342.91
499.859	8337.62
500.311	8373.89
500.764	8388.39
501.217	8393.81
501.67	8402.02
502.123	8435.32
502.576	8452.67
503.028	8478.69
503.481	8498.55
503.934	8508.37
504.387	8519.62
504.839	8538.65
505.292	8569.44
505.745	8566.51
506.197	8566.74
506.65	8609.68
507.102	8623.38
507.555	8632.65
508.007	8678.37
508.46	8661.17
508.912	8682.6
509.364	8711.11
509.817	8746.79
510.269	8763.06
510.721	8773.66
511.174	8799.17
511.626	8826.91
512.078	8853.26
512.531	8862.71
512.983	8890.06
513.435	8929.95
513.887	8933.14
514.339	8943.94
514.791	8972.5
515.243	8984.67
515.695	8977.61
516.147	9033.28
516.599	9028.72
517.051	9044.78
517.503	9066.49
517.955	9067.35
518.407	9104.49
518.859	9135.61
519.311	9121.91
519.762	9154.6
520.214	9161.21
520.666	9191.59
521.118	9206.66
521.569	9211.79
522.021	9231.06
522.473	9261.63
522.924	9244.95
523.376	9271.83
523.827	9308.06
524.279	9319.14
524.73	9315.03
525.182	9312.1
525.633	9335.19
526.085	9339.82
526.536	9374.97
526.987	9399.18
527.439	9399.03
527.89	9414.69
528.341	9403.65
528.793	9422.42
529.244	9435.61
529.695	9426.53
530.146	9466.1
530.597	9472.43
531.049	9474.9
531.5	9491.76
531.951	9508.71
532.402	9513.27
532.853	9521.85
533.304	9527.12
533.755	9564.98
534.206	9548.15
534.657	9580.52
535.108	9600.39
535.558	9579.28
536.009	9597.26
536.46	9610.32
536.911	9628.68
537.362	9639.64
537.812	9668.14
538.263	9679.36
538.714	9673.96
539.164	9686.33
539.615	9690.75
540.066	9720.86
540.516	9750.19
540.967	9779.73
541.417	9763.76
541.868	9758.87
542.318	9799.25
542.769	9800.22
543.219	9823.6
543.669	9826.55
544.12	9836.28
544.57	9868.98
545.02	9845.6
545.471	9874.61
545.921	9878.66
546.371	9882.57
546.821	9896.51
547.272	9900.97
547.722	9916.39
548.172	9932.01
548.622	9934.78
549.072	9938.83
549.522	9959.91
549.972	9956.25
550.422	9992.67
550.872	9989.35
551.322	9988.89
551.772	10009.99
552.222	10016.29
552.671	10033.65
553.121	10019.16
553.571	10067.92
554.021	10037.13
554.471	10065.72
554.92	10072.7
555.37	10083.73
555.82	10100.94
556.269	10091.35
556.719	10081.83
557.168	10086.49
557.618	10085.8
558.068	10112.9
558.517	10142.52
558.967	10126.76
559.416	10132.58
559.865	10158.37
560.315	10138.2
560.764	10112.3
561.213	10142.35
561.663	10146.51
562.112	10141.72
562.561	10158.11
563.011	10150.47
563.46	10162.8
563.909	10164.38
564.358	10176.44
564.807	10163.67
565.256	10183.43
565.705	10190.13
566.154	10237.59
566.603	10190.39
567.052	10211.59
567.501	10222.4
567.95	10222.49
568.399	10237.7
568.848	10238.07
569.297	10251.47
569.746	10237.56
570.195	10252.49
570.643	10278.06
571.092	10289
571.541	10291.36
571.989	10305.16
572.438	10284.08
572.887	10301.56
573.335	10311.48
573.784	10319.82
574.232	10320.92
574.681	10326.25
575.129	10332.7
575.578	10339.53
576.026	10346.36
576.475	10339.68
576.923	10351.13
577.372	10351.82
577.82	10345.97
578.268	10363.48
578.716	10358.91
579.165	10366.02
579.613	10384.48
580.061	10384.06
580.509	10375.45
580.957	10387.03
581.406	10388.4
581.854	10390.86
582.302	10404.14
582.75	10422.42
583.198	10414.72
583.646	10412.32
584.094	10392.62
584.542	10421.56
584.99	10406.9
585.437	10399.23
585.885	10402.73
586.333	10424.54
586.781	10407.56
587.229	10395.92
587.676	10395.02
588.124	10361.58
588.572	10364.78
589.019	10352.85
589.467	10337.49
589.915	10323.32
590.362	10296.56
590.81	10306.22
591.257	10275.31
591.705	10280.48
592.152	10241.57
592.6	10241.28
593.047	10217.42
593.494	10222.5
593.942	10177.74
594.389	10178.66
594.836	10151.05
595.284	10148.68
595.731	10156.18
596.178	10130.64
596.625	10127.54
597.072	10088.69
597.52	10104.97
597.967	10072.73
598.414	10078.43
598.861	10069.86
599.308	10065.56
599.755	10058.35
600.202	10042.36
600.649	10047.47
601.096	10044.48
601.543	10022.68
601.989	10052.65
602.436	10042.76
602.883	10036.35
603.33	10033.45
603.777	10048.32
604.223	10044.75
604.67	10029.44
605.117	10031
605.563	10030.44
606.01	10031.92
606.456	10034.59
606.903	10034.36
607.35	10039.96
607.796	10048.56
608.243	10043.79
608.689	10054.98
609.135	10078.48
609.582	10064.23
610.028	10076.37
610.474	10069.27
610.921	10084.71
611.367	10076.65
611.813	10083.46
612.26	10101.53
612.706	10108.15
613.152	10118.8
613.598	10124.78
614.044	10110.3
614.49	10117.88
614.936	10154.39
615.382	10135.54
615.828	10138.37
616.274	10147.1
616.72	10131.54
617.166	10143.72
617.612	10153.4
618.058	10147.12
618.504	10140.13
618.95	10133.73
619.395	10147.32
619.841	10154.6
620.287	10115.23
620.733	10103.35
621.178	10110.16
621.624	10084.24
622.069	10076.87
622.515	10060.98
622.961	10039.29
623.406	10038.83
623.852	10012.76
624.297	9989.02
624.743	9995.38
625.188	9950.18
625.633	9928.01
626.079	9892.75
626.524	9903.49
626.969	9886.17
627.415	9859.49
627.86	9840.33
628.305	9843.62
628.75	9811.53
629.196	9794.81
629.641	9778.63
630.086	9773.95
630.531	9763.06
630.976	9752.33
631.421	9726.43
631.866	9731.51
632.311	9690.17
632.756	9705.54
633.201	9675.14
633.646	9674.69
634.091	9657.57
634.535	9639.93
634.98	9662.72
635.425	9597.94
635.87	9606.35
636.314	9577.99
636.759	9562.45
637.204	9546.84
637.648	9530.3
638.093	9529.3
638.538	9505.78
638.982	9488.16
639.427	9484.54
639.871	9500.31
640.316	9483.81
640.76	9472.89
641.205	9480.82
641.649	9491.03
642.093	9487.62
642.538	9501.52
642.982	9532.79
643.426	9508.24
643.87	9541.87
644.315	9534.45
644.759	9547.95
645.203	9571.13
645.647	9591.88
646.091	9583.63
646.535	9605.2
646.979	9621.38
647.423	9629.22
647.867	9631.05
648.311	9616.02
648.755	9597.39
649.199	9594.54
649.643	9576.55
650.087	9562.12
650.531	9531.02
650.975	9512.5
651.418	9477.39
651.862	9456.28
652.306	9428.53
652.75	9362.81
653.193	9373.25
653.637	9312.4
654.08	9297.07
654.524	9259.48
654.968	9228.01
655.411	9201.05
655.855	9190.59
656.298	9174.49
656.741	9175.71
657.185	9166.45
657.628	9168.23
658.072	9153.96
658.515	9136.03
658.958	9135.42
659.401	9160.84
659.845	9134.9
660.288	9144.3
660.731	9140.87
661.174	9165.36
661.617	9166.23
662.06	9188.24
662.504	9186.39
662.947	9192.44
663.39	9198.01
663.833	9231.3
664.276	9244.39
664.718	9243.08
665.161	9268.56
665.604	9259.28
666.047	9277.54
666.49	9293.49
666.933	9287.99
667.375	9325.44
667.818	9322.55
668.261	9326.51
668.703	9330.9
669.146	9335.44
669.589	9354.23
670.031	9361.13
670.474	9361.99
670.916	9376.82
671.359	9366.28
671.801	9368.16
672.244	9378.15
672.686	9391.82
673.129	9390.63
673.571	9381.02
674.013	9412.21
674.456	9396.52
674.898	9406.32
675.34	9409.35
675.782	9416.47
676.224	9427.71
676.667	9403.72
677.109	9428.71
677.551	9444.79
677.993	9473.38
678.435	9490.35
678.877	9558.14
679.319	9603.93
679.761	9674.12
680.203	9727.95
680.645	9760.96
681.087	9800.1
681.529	9835.62
681.97	9899.89
682.412	9923.8
682.854	9952.42
683.296	9992.23
683.737	9989.64
684.179	10023.46
684.621	10051.35
685.062	10038.26
685.504	10040.96
685.945	10033.9
686.387	10024.88
686.828	10027.31
687.27	9981.21
687.711	9961.74
688.153	9924.79
688.594	9929.78
689.035	9856.1
689.477	9817.38
689.918	9791.45
690.359	9741.11
690.801	9685.27
691.242	9626.86
691.683	9577.88
692.124	9505.35
692.565	9443.86
693.006	9392.57
693.447	9312.25
693.889	9258.2
694.33	9189.43
694.771	9135.25
695.211	9099.03
695.652	9031.41
696.093	8998.08
696.534	8963.5
696.975	8915.22
697.416	8873.74
697.857	8837.88
698.297	8819.18
698.738	8797.4
699.179	8765.15
699.619	8740.66
700.06	8709.01
700.501	8717.85
700.941	8673.95
701.382	8638.31
701.822	8623.89
702.263	8636.68
702.703	8624.02
703.144	8612.4
703.584	8618.67
704.025	8632.11
704.465	8602.85
704.905	8617.75
705.346	8646.27
705.786	8673.41
706.226	8690.48
706.666	8723.61
707.106	8753.47
707.547	8778.14
707.987	8844.01
708.427	8895.6
708.867	8950.77
709.307	9023.31
709.747	9074.38
710.187	9120.65
710.627	9182.85
711.067	9222.23
711.507	9259.34
711.947	9287.53
712.386	9295.25
712.826	9305.38
713.266	9307.49
713.706	9314.49
714.145	9307.42
714.585	9293.89
715.025	9293.59
715.464	9214.16
715.904	9178.55
716.344	9098.02
716.783	9066.64
717.223	8978.04
717.662	8924.13
718.102	8869.1
718.541	8807.01
718.98	8728.09
719.42	8678.13
719.859	8639.36
720.298	8594.29
720.738	8548.81
721.177	8490.06
721.616	8449.97
722.055	8424.91
722.495	8405.64
722.934	8402.84
723.373	8389.32
723.812	8399.22
724.251	8404.58
724.69	8431.51
725.129	8461.91
725.568	8508.22
726.007	8553.32
726.446	8600.17
726.885	8648.28
727.323	8722.43
727.762	8783.58
728.201	8860.36
728.64	8949.42
729.079	9041.88
729.517	9139.33
729.956	9213.92
730.395	9286.53
730.833	9340.77
731.272	9390.97
731.71	9413.3
732.149	9419.05
732.587	9415.19
733.026	9372.46
733.464	9378.84
733.903	9328.92
734.341	9274.25
734.779	9226.29
735.218	9163.65
735.656	9096.31
736.094	9028.77
736.532	8966.79
736.971	8920.27
737.409	8852.71
737.847	8832.87
738.285	8801.71
738.723	8783.83
739.161	8764.55
739.599	8746.28
740.037	8800.89
740.475	8741.21
740.913	8748.25
741.351	8729.62
741.789	8726.96
742.227	8696.68
742.665	8689.87
743.102	8661.57
743.54	8623.59
743.978	8612.95
744.416	8576.65
744.853	8528.79
745.291	8477.75
745.729	8454.93
746.166	8414.65
746.604	8403.53
747.041	8365.16
747.479	8346.24
747.916	8324.38
748.354	8299.49
748.791	8301.23
749.228	8267.49
749.666	8248.97
750.103	8240.51
750.54	8214.89
750.978	8172.68
751.415	8156.48
751.852	8150.9
752.289	8115.46
752.726	8076.77
753.164	8044.19
753.601	8007.74
754.038	7972.7
754.475	7965.99
754.912	7951.64
755.349	7932.29
755.786	7912.42
756.223	7928.91
756.659	7951.13
757.096	8000.41
757.533	8022.77
757.97	8069.73
758.407	8150.6
758.843	8260.87
759.28	8413.52
759.717	8646.89
760.153	9008.05
760.59	9420.64
761.027	9847.89
761.463	10248.9
761.9	10564.94
762.336	10804.09
762.773	10980.5
763.209	11103.2
763.646	11156.89
764.082	11166.67
764.518	11159.12
764.955	11084.89
765.391	10955.53
765.827	10765.39
766.263	10503.66
766.7	10165.52
767.136	9694.63
767.572	9266.54
768.008	8878.18
768.444	8489.18
768.88	8138.89
769.316	7866.03
769.752	7626.52
770.188	7428.13
770.624	7271.97
771.06	7156.41
771.496	7051.8
771.932	6940.34
772.367	6849.73
772.803	6793.86
773.239	6712.05
773.675	6636.96
774.11	6600.71
774.546	6549.45
774.982	6473.71
775.417	6428.01
775.853	6372.11
776.288	6344.71
776.724	6302.11
777.159	6250.65
777.595	6222.14
778.03	6194.26
778.466	6189.99
778.901	6160.16
779.336	6162.03
779.772	6152.87
780.207	6141.99
780.642	6165.07
781.077	6132.91
781.513	6147.76
781.948	6129.98
782.383	6143.11
782.818	6130.09
783.253	6125.98
783.688	6160.6
784.123	6185.19
784.558	6229.36
784.993	6295.33
785.428	6367.01
785.863	6439.39
786.298	6526.59
786.733	6596.59
787.167	6690.96
787.602	6733.73
788.037	6816.93
788.472	6841.99
788.906	6879.01
789.341	6911.54
789.776	6925.12
790.21	6928.54
790.645	6897.49
791.079	6882.59
791.514	6823.54
791.948	6796.93
792.383	6736.83
792.817	6711.43
793.252	6656.57
793.686	6634.63
794.12	6618.56
794.554	6612.53
794.989	6613.35
795.423	6637.71
795.857	6627.17
796.291	6649.04
796.725	6665.8
797.16	6689.31
797.594	6710.27
798.028	6690.57
798.462	6699.55
798.896	6683.95
799.33	6669.34
799.764	6642.6
800.198	6590.84
800.631	6560.69
801.065	6510.96
801.499	6452.92
801.933	6400.08
802.367	6398.41
802.8	6316.22
803.234	6268.05
803.668	6261.87
804.101	6210.54
804.535	6196.14
804.968	6173.42
805.402	6187.38
805.835	6206.85
806.269	6202.12
806.702	6216.58
807.136	6243.91
807.569	6277.04
808.003	6317.31
808.436	6341.77
808.869	6382.18
809.302	6426.95
809.736	6486.01
810.169	6552.52
810.602	6600.32
811.035	6659.11
811.468	6753.18
811.901	6835.34
812.335	6920.66
812.768	7046.64
813.201	7179.88
813.633	7345.87
814.066	7549.33
814.499	7774.35
814.932	8029.45
815.365	8337.2
815.798	8741.74
816.231	9172.42
816.663	9763
817.096	10468.11
817.529	11390.58
817.961	12642.94
818.394	14338.76
818.827	16839.08
819.259	20167.94
819.692	23866.83
820.124	27509.22
820.557	30731.89
820.989	33502.69
821.422	35754.59
821.854	37603.88
822.286	39085.97
822.719	40220.44
823.151	41206.33
823.583	42099.51
824.016	42905.8
824.448	43385.69
824.88	43222.86
825.312	42185.8
825.744	40278.33
826.176	37812.35
826.608	35174.55
827.04	32652.78
827.472	30256.4
827.904	28137.42
828.336	26281.93
828.768	24733.26
829.2	23368.14
829.632	22176.48
830.064	21118.89
830.495	20117.87
830.927	19289.33
831.359	18598.88
831.791	18050.78
832.222	17554.24
832.654	17114.84
833.086	16720.53
833.517	16410.98
833.949	16090.22
834.38	15776.54
834.812	15438.72
835.243	15082.51
835.674	14624.92
836.106	14165.3
836.537	13684.64
836.969	13163.85
837.4	12611.43
837.831	12027.6
838.262	11481.25
838.693	10927.1
839.125	10464.97
839.556	10021.35
839.987	9661.17
840.418	9328.44
840.849	9026.31
841.28	8732.83
841.711	8451.01
842.142	8167.8
842.573	7891.13
843.004	7556.31
843.435	7098.88
843.865	6652.66
844.296	6227.52
844.727	5875.84
845.158	5546
845.589	5300.44
846.019	5065.48
846.45	4899.55
846.88	4753.21
847.311	4639.63
847.742	4542.67
848.172	4475.46
848.603	4403.36
849.033	4350.47
849.464	4305.57
849.894	4251.96
850.324	4227.36
850.755	4177.69
851.185	4149.66
851.615	4119.46
852.045	4114.48
852.476	4110.29
852.906	4100.98
853.336	4115.37
853.766	4114.56
854.196	4123.61
854.626	4134.92
855.056	4169.02
855.486	4166.48
855.916	4186.68
856.346	4222.56
856.776	4239.36
857.206	4263.62
857.636	4270
858.066	4283.64
858.495	4308.51
858.925	4333.99
859.355	4371.54
859.785	4411.41
860.214	4453.02
860.644	4471.25
861.074	4544.36
861.503	4583.21
861.933	4639.85
862.362	4708.45
862.792	4771.2
863.221	4858.25
863.651	4950.31
864.08	5031.11
864.509	5129.82
864.939	5220.81
865.368	5329.4
865.797	5438.77
866.226	5559.13
866.656	5700.83
867.085	5806.36
867.514	5942.85
867.943	6072.72
868.372	6202.37
868.801	6342.76
869.23	6518.4
869.659	6695.12
870.088	6871.8
870.517	7039.42
870.946	7248.82
871.375	7453.45
871.804	7705.8
872.232	7943.87
872.661	8217.1
873.09	8535.74
873.519	8872.98
873.947	9217.9
874.376	9654.47
874.804	10160.35
875.233	10788.53
875.662	11533.83
876.09	12503.09
876.519	13753.87
876.947	15461.62
877.375	17744.51
877.804	20559.77
878.232	23632.76
878.66	26887.19
879.089	30038.18
879.517	32879.75
879.945	35386.37
880.373	37439.17
880.802	38985.43
881.23	40149.5
881.658	40879.85
882.086	41173.19
882.514	41046.87
882.942	40447.49
883.37	39327.39
883.798	37624.07
884.226	35405.32
884.654	32879.92
885.082	30205.86
885.51	27498.49
885.937	24928.36
886.365	22626.14
886.793	20600.31
887.221	18907.03
887.648	17498.93
888.076	16367.46
888.503	15524.76
888.931	14862.54
889.359	14437.88
889.786	14274.79
890.214	14283.56
890.641	14604.44
891.068	15253.98
891.496	16103.25
891.923	16998.41
892.351	17827.01
892.778	18519.81
893.205	19003.1
893.632	19362.85
894.06	19638.69
894.487	19778.55
894.914	19836.91
895.341	19724.44
895.768	19496.12
896.195	19183.12
896.622	18708.14
897.049	18121.25
897.476	17346.32
897.903	16385.76
898.33	15488.51
898.757	14668.87
899.184	14066.96
899.61	13732.52
900.037	13841.93
900.464	14543.96
900.891	15655.64
901.317	16850.08
901.744	17854.33
902.17	18613.58
902.597	19117.09
903.024	19479.15
903.45	19654.23
903.877	19739.09
904.303	19688.15
904.729	19482.85
905.156	19183.56
905.582	18806.39
906.008	18223.92
906.435	17448.67
906.861	16352.14
907.287	15017.64
907.713	13673.95
908.14	12535.87
908.566	11630.93
908.992	10985.74
909.418	10601.62
909.844	10438.3
910.27	10568.23
910.696	10920.52
911.122	11595.51
911.548	12591.05
911.974	14027.96
912.4	15695.89
912.825	17460.16
913.251	19092.55
913.677	20518.16
914.103	21673.28
914.528	22539.11
914.954	23215.71
915.38	23656.53
915.805	23893.12
916.231	23897.66
916.656	23716.74
917.082	23297
917.507	22614.98
917.933	21657.67
918.358	20368.72
918.784	18850.61
919.209	17257.46
919.634	15706.64
920.059	14341.79
920.485	13179.73
920.91	12093.48
921.335	11259.39
921.76	10478.52
922.185	9842.55
922.61	9288.32
923.036	8804.13
923.461	8398.94
923.886	8029.86
924.31	7669.97
924.735	7375.97
925.16	7118.22
925.585	6878.88
926.01	6685.9
926.435	6521.26
926.86	6378.11
927.284	6260.98
927.709	6152.28
928.134	6075.23
928.558	6017.94
928.983	5981.53
929.408	5940.95
929.832	5933.99
930.257	5922.72
930.681	5944.34
931.106	5982.1
931.53	6023.15
931.954	6075.46
932.379	6165.39
932.803	6258.28
933.227	6433.64
933.652	6565.14
934.076	6791.79
934.5	7036.24
934.924	7281.62
935.348	7545.97
935.772	7793.04
936.197	8056.56
936.621	8310.94
937.045	8558.92
937.469	8738.78
937.893	8936.61
938.316	9087.62
938.74	9225.31
939.164	9303.07
939.588	9349.66
940.012	9348.02
940.436	9335.76
940.859	9270.22
941.283	9203.57
941.707	9146.89
942.13	9079.62
942.554	9005.37
942.977	8932.21
943.401	8851.72
943.824	8813.64
944.248	8787.11
944.671	8739.82
945.095	8755.71
945.518	8738.35
945.941	8751.58
946.365	8786.91
946.788	8813.77
947.211	8853.46
947.634	8885.67
948.058	8907.67
948.481	8932.55
948.904	8886.46
949.327	8829.29
949.75	8762.63
950.173	8700.28
950.596	8574.41
951.019	8454.99
951.442	8268.39
951.865	8070.5
952.288	7867
952.71	7640.3
953.133	7355.7
953.556	7097.57
953.979	6805.57
954.401	6556.81
954.824	6279.37
955.247	6020.71
955.669	5762.71
956.092	5541.04
956.514	5312.96
956.937	5128.23
957.359	4973.55
957.782	4804.37
958.204	4642.15
958.627	4549.55
959.049	4424.1
959.471	4328.82
959.893	4244.94
960.316	4180.64
960.738	4109.77
961.16	4063.17
961.582	4036.05
962.004	4008
962.426	4018.35
962.848	4024.49
963.27	4018.17
963.692	4056.72
964.114	4105.12
964.536	4170.17
964.958	4215.8
965.38	4307.63
965.802	4388.53
966.224	4481.13
966.645	4580.38
967.067	4677.33
967.489	4759.92
967.911	4878.38
968.332	4958.58
968.754	5077.81
969.175	5156.28
969.597	5253.86
970.018	5320.89
970.44	5434.18
970.861	5520.68
971.283	5584.5
971.704	5673.3
972.125	5767.61
972.547	5891
972.968	6063.83
973.389	6243.91
973.81	6512.96
974.232	6829.38
974.653	7323.24
975.074	7931.26
975.495	8681.66
975.916	9591.13
976.337	10424.4
976.758	11143.12
977.179	11715.07
977.6	12135.03
978.021	12372.33
978.442	12497.3
978.862	12535.56
979.283	12401.67
979.704	12243.67
980.125	11953.52
980.545	11561.32
980.966	11051.42
981.387	10417.96
981.807	9666.67
982.228	8813.06
982.648	8006.64
983.069	7284.4
983.489	6697.21
983.91	6264.19
984.33	5970.15
984.75	5789.78
985.171	5703.14
985.591	5703.28
986.011	5794.36
986.431	5970.91
986.852	6275.03
987.272	6687.88
987.692	7226.58
988.112	7899.71
988.532	8618.08
988.952	9339.69
989.372	9978.59
989.792	10494.19
990.212	10927.22
990.632	11202.72
991.052	11393.75
991.472	11510.77
991.892	11464.84
992.311	11366.66
992.731	11166.29
993.151	10858.57
993.57	10421.47
993.99	9886.37
994.41	9222.06
994.829	8501.44
995.249	7751.41
995.668	7075.01
996.088	6431.81
996.507	5907.69
996.927	5459.77
997.346	5058.16
997.765	4727.69
998.185	4454.07
998.604	4205.42
999.023	3973.82
999.442	3797.04
999.862	3654.39
1000.281	3513.14
1000.7	3382.06
1001.119	3263.2
1001.538	3184.04
1001.957	3086.3
1002.376	3029.58
1002.795	2952.78
1003.214	2883.55
1003.633	2845.4
1004.052	2796.66
1004.471	2749.97
1004.889	2719.12
1005.308	2707.77
1005.727	2669.37
1006.146	2692.5
1006.564	2657.07
1006.983	2678.27
1007.401	2696.57
1007.82	2702.22
1008.238	2726.83
1008.657	2743.09
1009.075	2771.22
1009.494	2770.72
1009.912	2812.4
1010.331	2803.02
1010.749	2795.63
1011.167	2800.89
1011.586	2777.74
1012.004	2763.26
1012.422	2730.81
1012.84	2696.9
1013.258	2665.36
1013.676	2592.25
1014.094	2522.53
1014.512	2434.94
1014.93	2377.03
1015.348	2306.04
1015.766	2236.82
1016.184	2164.69
1016.602	2091.19
1017.02	2028.02
1017.438	1948.05
1017.856	1878.22
1018.273	1837.03
1018.691	1775.18
1019.109	1717.28
1019.526	1689.36
1019.944	1621.01
1020.361	1575.31
1020.779	1525.05
1021.197	1500.16
1021.614	1458.01
1022.031	1429.7
1022.449	1385.15
1022.866	1357.41
1023.284	1326.77
1023.701	1309.68
1024.118	1278.11
1024.535	1254.89
1024.953	1219.22
1025.37	1220.04
1025.787	1166.85
1026.204	1175
1026.621	1159.3
1027.038	1140.73
1027.455	1113.5
1027.872	1109.64
1028.289	1088.51
1028.706	1083.16
1029.123	1066.13
1029.54	1052.71
1029.956	1032.32
1030.373	1047.44
1030.79	1017.15
1031.207	1015.84
1031.623	1009.32
1032.04	995.92
1032.457	970.61
1032.873	973.23
1033.29	957.83
1033.706	941.39
1034.123	939.15
1034.539	919.78
1034.956	893.43
1035.372	883.54
1035.788	877.57
1036.205	869.48
1036.621	856.07
1037.037	851.8
1037.453	842.41
1037.87	838.75
1038.286	828.59
1038.702	802.91
1039.118	800.06
1039.534	815.32
1039.95	790.1
1040.366	776.79
1040.782	796.53
1041.198	780.9
1041.614	771.64
1042.029	768.52
1042.445	758.08
1042.861	737.86
1043.277	773.44
1043.693	746.21
1044.108	748.93
1044.524	750.95
1044.939	768.17
1045.355	754.27
1045.771	743.15
1046.186	731.08
1046.602	726.59
1047.017	731.7
1047.432	733.41
1047.848	740.21
1048.263	737.54
1048.678	729.22
1049.094	736.98
1049.509	733.42
1049.924	725.48
1050.339	726.86
1050.754	721.96
1051.17	728.14
1051.585	700.01
1052	705.65
1052.415	698.45
1052.83	681.82
1053.245	696.73
1053.66	677.63
1054.074	673.04
1054.489	665.19
1054.904	631.98
1055.319	648.03
1055.734	614.65
1056.148	602.49
1056.563	590.2
1056.978	583.02
1057.392	572.11
1057.807	547.13
1058.221	544.68
1058.636	556.47
1059.05	535.41
1059.465	522.17
1059.879	520.42
1060.293	511.84
1060.708	512.01
1061.122	481.04
1061.536	498.2
1061.951	485.4
1062.365	468.59
1062.779	460.22
1063.193	479.89
1063.607	446.2
1064.021	441.38
1064.435	439.91
1064.849	435.66
1065.263	433.14
1065.677	436.47
1066.091	438
1066.505	440.5
1066.919	419.62
1067.333	416.55
1067.746	441.99
1068.16	417.16
1068.574	417.6
1068.987	417
1069.401	417.22
1069.815	399.38
1070.228	400.52
1070.642	403.58
1071.055	392.18
1071.469	395.78
1071.882	395.53
1072.296	401.32
1072.709	394.49
1073.122	389.2
1073.536	386.2
1073.949	383.83
1074.362	393.33
1074.775	401.11
1075.188	392.52
1075.601	395.78
1076.015	390.88
1076.428	381.38
1076.841	381.74
1077.254	404.67
1077.667	392.43
1078.079	402.01
1078.492	400.69
1078.905	395.29
1079.318	414.22
1079.731	405.15
1080.144	427.15
1080.556	411.63
1080.969	414.6
1081.382	411.16
1081.794	415.22
1082.207	410.12
1082.619	413.73
1083.032	391.12
1083.444	390.81
1083.857	382.05
1084.269	375.32
1084.682	369.4
1085.094	364.84
1085.506	361.3
1085.918	349.77
1086.331	342.28
1086.743	330.45
1087.155	334.01
1087.567	331.17
1087.979	315.23
1088.391	311.82
1088.803	311.9
1089.215	297.13
1089.627	302.34
1090.039	291.95
1090.451	294.16
1090.863	289.62
1091.275	279.56
1091.687	276.64
1092.098	261.56
1092.51	256.45
1092.922	260.59
1093.334	247.47
1093.745	238.21
1094.157	246.74
1094.568	240.41
1094.98	223.27
1095.391	219.28
1095.803	227.35
1096.214	221.3
1096.626	215.89
1097.037	214.72
1097.448	210.14
1097.86	212.97
1098.271	205.29
1098.682	197.02
1099.093	203.32
1099.504	188.62
1099.916	193.86
1100.327	193.78
1100.738	197.78
1101.149	186.75
1101.56	181.19
1101.971	205.8
1102.381	187.23
1102.792	186.46
1103.203	184.11
1103.614	179.34
1104.025	172.63
1104.436	178.52
1104.846	183.91
1105.257	210.18
1105.668	175.29
1106.078	175.07
1106.489	171.15
1106.899	164.36
1107.31	167.86
1107.72	164.15
1108.131	173.32
1108.541	165.21
1108.951	173.07
1109.362	163.64
1109.772	162.04
1110.182	153.04
1110.592	165.71
1111.003	-6.48
1111.413	-3.9
1111.823	-4.22
1112.233	-4.85
