Data from T_3_D_MAYP1165941__0__20-07-32-944.txt Node

Date: Wed May 31 20:07:32 JST 2023
User: takis
Spectrometer: MAYP116594
Trigger mode: 0
Integration Time (sec): 5.000000E-2
Scans to average: 100
Electric dark correction enabled: true
Nonlinearity correction enabled: false
Boxcar width: 0
XAxis mode: Wavelengths
Number of Pixels in Spectrum: 2068
>>>>>Begin Spectral Data<<<<<
199.712	844.42
200.181	-156.51
200.65	30.8
201.119	-10.64
201.587	107.64
202.056	106.35
202.525	114.05
202.993	125.33
203.462	122.89
203.93	109.7
204.399	118.73
204.867	105.96
205.336	109.47
205.804	114.11
206.273	107.72
206.741	97.45
207.21	100.29
207.678	105.62
208.146	103.99
208.615	104.95
209.083	103.92
209.551	113.18
210.02	110.82
210.488	111.65
210.956	117.16
211.424	114.2
211.893	122.65
212.361	114.23
212.829	102.99
213.297	120.44
213.765	110.02
214.233	114.68
214.701	113.91
215.169	103.34
215.637	115.91
216.105	105.41
216.573	130.92
217.041	107.93
217.509	111.04
217.977	134.61
218.445	116.24
218.913	123.03
219.381	117.02
219.848	116.18
220.316	124.38
220.784	122.6
221.252	109.66
221.719	115.63
222.187	111.48
222.655	113.71
223.122	118.67
223.59	122.51
224.058	126.02
224.525	105.98
224.993	112.29
225.46	120.39
225.928	112.76
226.395	126.44
226.863	119.31
227.33	122.05
227.798	124.37
228.265	124.35
228.732	112.37
229.2	103.76
229.667	121.24
230.134	115.23
230.602	106.75
231.069	127.18
231.536	117.65
232.003	109.53
232.47	126.01
232.938	109.43
233.405	113.93
233.872	112.82
234.339	112.65
234.806	113.32
235.273	116.16
235.74	122.97
236.207	117.67
236.674	122.82
237.141	122.05
237.608	112.92
238.075	111.55
238.542	100.69
239.009	119.36
239.476	116.84
239.942	123.8
240.409	113.91
240.876	112.65
241.343	116.25
241.809	119.68
242.276	136.34
242.743	107.38
243.21	114.14
243.676	113.37
244.143	128.28
244.609	124.24
245.076	115.97
245.542	108.3
246.009	110.23
246.476	120.02
246.942	116.5
247.408	105.89
247.875	116.9
248.341	120.05
248.808	118.07
249.274	118.65
249.74	120.82
250.207	132.23
250.673	118.6
251.139	130.49
251.606	119.93
252.072	132.18
252.538	115.53
253.004	117.26
253.47	124.21
253.936	123.12
254.403	126.68
254.869	123.38
255.335	112.53
255.801	116.65
256.267	110.81
256.733	122.3
257.199	124.15
257.665	109.79
258.131	109.76
258.596	126.5
259.062	127.42
259.528	115.07
259.994	112.67
260.46	117.88
260.926	106.3
261.391	109.27
261.857	123.24
262.323	121.6
262.789	117.57
263.254	128.47
263.72	113.98
264.185	117.01
264.651	126.15
265.117	119.5
265.582	125.94
266.048	124.11
266.513	114.63
266.979	115.94
267.444	112
267.91	111.61
268.375	114.28
268.84	97.93
269.306	121.04
269.771	114.2
270.236	115.65
270.702	128.95
271.167	111.37
271.632	126.72
272.098	118.26
272.563	115.95
273.028	111.09
273.493	109.7
273.958	121.41
274.423	116.89
274.888	129.48
275.353	109.42
275.819	111.25
276.284	108.58
276.749	120.72
277.214	128.42
277.678	130.5
278.143	109.42
278.608	117.29
279.073	114.97
279.538	123.65
280.003	112.99
280.468	123.87
280.932	116.65
281.397	119.1
281.862	123.36
282.327	113.13
282.791	125.05
283.256	113.08
283.721	117.77
284.185	121.22
284.65	121.06
285.114	116.16
285.579	114.65
286.044	119.11
286.508	109.22
286.973	122.57
287.437	129.24
287.901	112.24
288.366	135.84
288.83	119.58
289.295	123.17
289.759	106.06
290.223	122.23
290.687	119.5
291.152	131.62
291.616	119.87
292.08	121.11
292.544	121.08
293.009	122.33
293.473	138.55
293.937	125.23
294.401	118.42
294.865	130.52
295.329	121.63
295.793	109.04
296.257	112.92
296.721	114.37
297.185	123.22
297.649	108.04
298.113	114.09
298.577	114.31
299.041	117.23
299.505	128.74
299.968	109.49
300.432	132.25
300.896	122.03
301.36	131.87
301.823	126.99
302.287	108.38
302.751	114.63
303.214	110.19
303.678	123.25
304.142	117.74
304.605	106.81
305.069	128.18
305.532	135.19
305.996	125.51
306.459	123
306.923	127.82
307.386	109.43
307.85	109.11
308.313	110.76
308.776	112.87
309.24	118.84
309.703	118.99
310.166	128.25
310.63	116.42
311.093	115.45
311.556	129.88
312.019	112.15
312.482	113.03
312.946	116.63
313.409	122.8
313.872	110.86
314.335	122.73
314.798	116.88
315.261	131.01
315.724	107.06
316.187	123.61
316.65	109.24
317.113	107.85
317.576	123.15
318.039	119.96
318.502	128.5
318.964	110.73
319.427	116.43
319.89	112.4
320.353	128.01
320.816	111.13
321.278	125.31
321.741	114.92
322.204	114.04
322.666	116.45
323.129	114.73
323.592	120.23
324.054	116.54
324.517	116.97
324.979	107.15
325.442	112.52
325.904	116.27
326.367	127.97
326.829	109.36
327.292	125.35
327.754	104.05
328.216	109.96
328.679	115.48
329.141	115.44
329.603	131.64
330.066	118.92
330.528	113.85
330.99	110.76
331.452	123.77
331.914	113.56
332.377	118.22
332.839	111.71
333.301	119.05
333.763	127.82
334.225	116.35
334.687	110.09
335.149	124.17
335.611	103.01
336.073	110.95
336.535	120.35
336.997	121.44
337.459	109.33
337.92	124.63
338.382	122.86
338.844	129.61
339.306	119.36
339.768	112.56
340.229	130.67
340.691	117.07
341.153	124.12
341.614	111.48
342.076	103.89
342.538	108.03
342.999	113.39
343.461	116.04
343.922	128.96
344.384	121.02
344.845	117
345.307	109.24
345.768	152.78
346.23	117.06
346.691	105.19
347.153	125.57
347.614	112.85
348.075	106.6
348.536	114.13
348.998	112.87
349.459	119.08
349.92	150.04
350.381	114.69
350.843	130.06
351.304	116.58
351.765	128.72
352.226	99.66
352.687	110.19
353.148	110.06
353.609	124.5
354.07	119.35
354.531	119.62
354.992	111.05
355.453	118.16
355.914	127.12
356.375	128.96
356.836	109.93
357.297	112.23
357.757	113.59
358.218	106.37
358.679	111.72
359.14	117.72
359.6	112.32
360.061	126.99
360.522	115.18
360.982	114.84
361.443	111.3
361.904	111.61
362.364	120.42
362.825	126.26
363.285	130.97
363.746	132.18
364.206	126.07
364.667	114.23
365.127	115.46
365.588	120.47
366.048	121.04
366.508	123.07
366.969	110.64
367.429	122.69
367.889	124
368.349	115.04
368.81	115.59
369.27	121.65
369.73	125.42
370.19	110.38
370.65	118.57
371.11	113.16
371.57	117.09
372.031	122.87
372.491	133.5
372.951	113.05
373.411	129.42
373.871	112.5
374.33	125.36
374.79	100.12
375.25	114.5
375.71	140.98
376.17	110.17
376.63	114.82
377.09	130.69
377.549	108.37
378.009	102.08
378.469	114.92
378.928	115.03
379.388	92.47
379.848	114.15
380.307	115.8
380.767	119.97
381.227	101.28
381.686	112.83
382.146	135.68
382.605	120.66
383.065	122.04
383.524	106.09
383.983	135.66
384.443	117.5
384.902	108.15
385.361	121.98
385.821	102.7
386.28	129.86
386.739	124.74
387.199	114.17
387.658	127.03
388.117	105.24
388.576	116.74
389.035	114.56
389.494	101.41
389.954	116.88
390.413	116.91
390.872	103.42
391.331	130.23
391.79	114.04
392.249	111.96
392.708	105.15
393.166	116.34
393.625	120.72
394.084	129.61
394.543	106.35
395.002	123.58
395.461	114.65
395.919	111.99
396.378	107.04
396.837	117.65
397.296	108.78
397.754	132.36
398.213	117.7
398.672	146.17
399.13	127.59
399.589	113.88
400.047	118.72
400.506	115.19
400.964	116.89
401.423	99.26
401.881	110.51
402.34	111.86
402.798	116.42
403.256	118.65
403.715	117.18
404.173	116.28
404.631	103.85
405.09	121.53
405.548	101.15
406.006	110.63
406.464	115.09
406.923	119.15
407.381	110.92
407.839	108.09
408.297	131.73
408.755	119.86
409.213	110.03
409.671	99.47
410.129	126.2
410.587	135.17
411.045	117.24
411.503	122
411.961	109.17
412.419	114.98
412.876	114.12
413.334	101.36
413.792	101.02
414.25	113.22
414.708	110.21
415.165	120.26
415.623	128.96
416.081	111.46
416.538	133.32
416.996	114.65
417.454	123.17
417.911	122.18
418.369	122.07
418.826	128.45
419.284	103.4
419.741	108.62
420.199	106.89
420.656	133.36
421.113	124.94
421.571	109.39
422.028	117.24
422.485	108.91
422.943	128.97
423.4	112.37
423.857	110.04
424.314	107.11
424.772	114.68
425.229	118.25
425.686	114.34
426.143	107.67
426.6	123.81
427.057	117.3
427.514	106.48
427.971	117.06
428.428	117.65
428.885	115.76
429.342	117.02
429.799	132.94
430.256	113.95
430.713	130.48
431.17	110.22
431.627	109.54
432.083	117.32
432.54	105.35
432.997	107.83
433.454	109.46
433.91	106.61
434.367	114.76
434.824	119.95
435.28	108.43
435.737	109.7
436.193	105.58
436.65	106
437.106	109.56
437.563	111.85
438.019	123.71
438.476	117.84
438.932	116.39
439.388	113.37
439.845	118.19
440.301	112.43
440.757	110.43
441.214	120.09
441.67	117.55
442.126	116.68
442.582	108.85
443.039	123.84
443.495	111.91
443.951	114.05
444.407	104.72
444.863	127.12
445.319	121.49
445.775	104.26
446.231	126.4
446.687	115.16
447.143	111.07
447.599	117.25
448.055	124.43
448.511	120.36
448.967	111.24
449.422	123.92
449.878	121.61
450.334	110.52
450.79	110.09
451.245	114.08
451.701	118.69
452.157	118.35
452.612	111.53
453.068	112.2
453.524	117.24
453.979	137.43
454.435	106.55
454.89	120.53
455.346	126.46
455.801	116.03
456.257	125.66
456.712	113.18
457.168	126.97
457.623	130.11
458.078	117.12
458.534	112.69
458.989	109.35
459.444	122.03
459.899	122.43
460.354	184.9
460.81	105.89
461.265	120.05
461.72	122.77
462.175	135.61
462.63	106.01
463.085	112.56
463.54	116.31
463.995	113.85
464.45	121.34
464.905	116.84
465.36	119.47
465.815	103.98
466.27	116.95
466.725	123.68
467.18	121.82
467.634	116.05
468.089	99.16
468.544	117.71
468.999	114.78
469.453	125.64
469.908	114.68
470.363	106.28
470.817	122.09
471.272	138.05
471.726	123.68
472.181	130.48
472.635	118.35
473.09	134.37
473.544	117.71
473.999	107.41
474.453	102.73
474.908	116.08
475.362	118.28
475.816	122.29
476.271	102.22
476.725	101.53
477.179	105.72
477.633	116.15
478.087	110.33
478.542	114.4
478.996	133.57
479.45	113.54
479.904	119.48
480.358	113.82
480.812	117.4
481.266	110.69
481.72	102.98
482.174	104.03
482.628	112.56
483.082	117.79
483.536	115.38
483.99	118.6
484.444	120.1
484.897	118.18
485.351	118.34
485.805	107.8
486.259	115.64
486.712	135.46
487.166	121.08
487.62	120.75
488.073	115.43
488.527	109.88
488.981	114.26
489.434	105.63
489.888	109.71
490.341	110.69
490.795	124.24
491.248	116.37
491.701	133.88
492.155	116.32
492.608	128
493.062	115.48
493.515	107.27
493.968	106.43
494.421	113.04
494.875	109.33
495.328	119.68
495.781	141.2
496.234	106.57
496.687	109.4
497.14	112.84
497.594	112.63
498.047	119.1
498.5	109.52
498.953	115.3
499.406	114.87
499.859	100.91
500.311	119.16
500.764	115.32
501.217	113.07
501.67	105.05
502.123	116.63
502.576	112.58
503.028	129.2
503.481	122.33
503.934	114.83
504.387	103.37
504.839	108.25
505.292	126.18
505.745	115.36
506.197	95.22
506.65	120.79
507.102	113.11
507.555	110.1
508.007	136.7
508.46	106.17
508.912	107.78
509.364	117.66
509.817	125.47
510.269	116.45
510.721	102.32
511.174	106.03
511.626	111.69
512.078	122.25
512.531	102.93
512.983	109.9
513.435	126.66
513.887	126.35
514.339	114.96
514.791	120.84
515.243	106.78
515.695	98.76
516.147	119.11
516.599	113.66
517.051	100.69
517.503	111.93
517.955	107.44
518.407	110.23
518.859	130.08
519.311	97.43
519.762	117.03
520.214	110.46
520.666	113.02
521.118	119.88
521.569	105.8
522.021	122.44
522.473	122.64
522.924	107.13
523.376	115.43
523.827	124.43
524.279	118.46
524.73	106.04
525.182	99.45
525.633	112.07
526.085	109.96
526.536	122.27
526.987	124.5
527.439	116.9
527.89	114.27
528.341	102.91
528.793	122.9
529.244	113.08
529.695	105.16
530.146	116.5
530.597	117.74
531.049	108.23
531.5	126.83
531.951	124.19
532.402	114.22
532.853	116.48
533.304	98.22
533.755	122.68
534.206	105.36
534.657	125.24
535.108	132.62
535.558	103.99
536.009	110.15
536.46	106.48
536.911	109.88
537.362	114.85
537.812	129.07
538.263	118.06
538.714	109.1
539.164	112.21
539.615	101.89
540.066	115.19
540.516	132.68
540.967	134.27
541.417	113.18
541.868	103.18
542.318	118.85
542.769	115.63
543.219	122.81
543.669	118.07
544.12	113.69
544.57	141.92
545.02	101.68
545.471	132.9
545.921	114.65
546.371	108.33
546.821	114.26
547.272	119.69
547.722	114.7
548.172	129.13
548.622	116.22
549.072	111.28
549.522	121.87
549.972	113.32
550.422	110.81
550.872	115.84
551.322	118.87
551.772	114.03
552.222	112.69
552.671	123.38
553.121	98.16
553.571	142.58
554.021	111.24
554.471	121.41
554.92	124.36
555.37	128.28
555.82	132.43
556.269	123.03
556.719	114.28
557.168	105.86
557.618	109.34
558.068	112.55
558.517	153.43
558.967	130.09
559.416	136.22
559.865	135.75
560.315	125.33
560.764	97.15
561.213	108.33
561.663	118.1
562.112	114.1
562.561	119.02
563.011	112.73
563.46	113.68
563.909	109.57
564.358	122.18
564.807	108.57
565.256	114.88
565.705	122.91
566.154	138.82
566.603	97.81
567.052	112.1
567.501	113.6
567.95	115.71
568.399	124.43
568.848	118.51
569.297	121.93
569.746	102.5
570.195	106.33
570.643	123.97
571.092	122.95
571.541	119.98
571.989	122.95
572.438	107.86
572.887	114.72
573.335	125.03
573.784	119.42
574.232	117.51
574.681	111.57
575.129	117.6
575.578	126.75
576.026	114.49
576.475	114.15
576.923	116.48
577.372	111.66
577.82	114.86
578.268	119.74
578.716	109.83
579.165	118.35
579.613	120.42
580.061	125.86
580.509	122.36
580.957	128.09
581.406	126.04
581.854	117.53
582.302	121.52
582.75	127.61
583.198	119.51
583.646	118.31
584.094	108.11
584.542	132.26
584.99	105.31
585.437	108.68
585.885	112.31
586.333	127.98
586.781	119.14
587.229	117.64
587.676	122.21
588.124	105.47
588.572	118.81
589.019	123.49
589.467	109.48
589.915	111.72
590.362	104.51
590.81	115
591.257	110.1
591.705	135.25
592.152	111.95
592.6	115.53
593.047	112.56
593.494	124.57
593.942	111.53
594.389	117.18
594.836	104.95
595.284	103.23
595.731	125.99
596.178	117.52
596.625	127.01
597.072	104
597.52	115.86
597.967	107.2
598.414	120.15
598.861	118.73
599.308	110.85
599.755	124.6
600.202	116.42
600.649	118.57
601.096	112.5
601.543	105.83
601.989	113.4
602.436	114.56
602.883	114.65
603.33	108.82
603.777	115.54
604.223	115.45
604.67	120.13
605.117	114.27
605.563	111.11
606.01	117.29
606.456	105.96
606.903	105.73
607.35	115.51
607.796	111.46
608.243	116.14
608.689	111.49
609.135	113.25
609.582	102.15
610.028	114.65
610.474	106.36
610.921	114.65
611.367	97.6
611.813	109.86
612.26	102.52
612.706	114.46
613.152	117.81
613.598	133.09
614.044	113.52
614.49	115.88
614.936	127.78
615.382	109.17
615.828	112.87
616.274	117.4
616.72	102.31
617.166	108.39
617.612	114.77
618.058	123.35
618.504	122.79
618.95	103.16
619.395	123.99
619.841	141.02
620.287	103.22
620.733	111.47
621.178	112.3
621.624	116.59
622.069	113.52
622.515	116.62
622.961	107.18
623.406	125.7
623.852	117.28
624.297	109.31
624.743	123.13
625.188	114.48
625.633	107.37
626.079	101.93
626.524	118.85
626.969	118.12
627.415	112.91
627.86	107.08
628.305	120.37
628.75	126.43
629.196	114.47
629.641	109.19
630.086	106.07
630.531	112.59
630.976	114.39
631.421	110.63
631.866	119.23
632.311	107.04
632.756	137.86
633.201	108.2
633.646	114.47
634.091	117.25
634.535	113.82
634.98	158.57
635.425	113.02
635.87	122.79
636.314	111.6
636.759	122.09
637.204	120.96
637.648	121.63
638.093	122.68
638.538	113.11
638.982	104.36
639.427	103.26
639.871	122.34
640.316	114.63
640.76	107.61
641.205	106.59
641.649	113.19
642.093	108.24
642.538	122.54
642.982	141.93
643.426	110.56
643.87	133.54
644.315	109.76
644.759	106.1
645.203	120.59
645.647	118.3
646.091	104.54
646.535	114.29
646.979	117.07
647.423	107.14
647.867	119.02
648.311	115.77
648.755	114.58
649.199	119.16
649.643	114.22
650.087	110.47
650.531	106.17
650.975	122.64
651.418	114.05
651.862	136.28
652.306	134.54
652.75	107.27
653.193	131.94
653.637	112.45
654.08	125.57
654.524	113.69
654.968	114.72
655.411	107.79
655.855	106.91
656.298	106.37
656.741	112.62
657.185	119.19
657.628	116.98
658.072	120.88
658.515	100.47
658.958	105.16
659.401	123.69
659.845	116.53
660.288	114.2
660.731	102.91
661.174	116.83
661.617	112.57
662.06	120.73
662.504	118.86
662.947	110.16
663.39	109.13
663.833	122.65
664.276	124.72
664.718	116.35
665.161	123.73
665.604	109.43
666.047	114.59
666.49	112.69
666.933	113.31
667.375	122.95
667.818	116.1
668.261	121.53
668.703	113.58
669.146	111.52
669.589	119.49
670.031	114.38
670.474	119.3
670.916	118.63
671.359	113.33
671.801	108.27
672.244	111.22
672.686	113.38
673.129	112.13
673.571	112.79
674.013	130.14
674.456	114.48
674.898	117.48
675.34	116.78
675.782	116.55
676.224	121.98
676.667	102.87
677.109	117.33
677.551	124.72
677.993	120.45
678.435	105.04
678.877	125.12
679.319	109.72
679.761	110.54
680.203	113.92
680.645	110.14
681.087	110.07
681.529	108.15
681.97	128.01
682.412	115.99
682.854	121.99
683.296	122.21
683.737	100.85
684.179	116.5
684.621	127.3
685.062	108.14
685.504	104.94
685.945	120.29
686.387	124.95
686.828	128.93
687.27	115.49
687.711	121.67
688.153	116.36
688.594	147.32
689.035	109.89
689.477	117.83
689.918	123.47
690.359	116.2
690.801	119.94
691.242	122.58
691.683	125.5
692.124	116.35
692.565	123.47
693.006	128.65
693.447	123.77
693.889	115.12
694.33	118.27
694.771	109.43
695.211	125.34
695.652	115.24
696.093	115.39
696.534	122.08
696.975	111.82
697.416	113.8
697.857	115.14
698.297	117.29
698.738	119.93
699.179	122.18
699.619	121.35
700.06	116.97
700.501	140.07
700.941	118.9
701.382	106.49
701.822	112.88
702.263	122.95
702.703	112.76
703.144	117.68
703.584	114.66
704.025	120.25
704.465	95.07
704.905	112.22
705.346	115.59
705.786	111.79
706.226	121.31
706.666	114.74
707.106	113.68
707.547	105.08
707.987	108.03
708.427	116.44
708.867	113.42
709.307	123.29
709.747	118.97
710.187	108.65
710.627	123.32
711.067	115
711.507	117
711.947	111.15
712.386	109.34
712.826	107.71
713.266	108.98
713.706	114.71
714.145	115.89
714.585	120.32
715.025	165.14
715.464	119.35
715.904	124.77
716.344	111.69
716.783	136.31
717.223	119.46
717.662	117.31
718.102	124.46
718.541	114.56
718.98	102.88
719.42	115.81
719.859	115.36
720.298	116.63
720.738	119.65
721.177	123.52
721.616	119.06
722.055	112.11
722.495	116.75
722.934	121.24
723.373	108.72
723.812	121.18
724.251	111.75
724.69	107.2
725.129	102.14
725.568	107.43
726.007	118.3
726.446	116.17
726.885	131.14
727.323	122.33
727.762	121.33
728.201	113.22
728.64	112.25
729.079	120.46
729.517	121.69
729.956	110.03
730.395	115.76
730.833	120.93
731.272	122.75
731.71	121.22
732.149	120.64
732.587	116.51
733.026	109.56
733.464	127.82
733.903	120.76
734.341	110.07
734.779	107.77
735.218	108.24
735.656	110.54
736.094	115.64
736.532	116.65
736.971	116.73
737.409	101.42
737.847	115.47
738.285	116.1
738.723	129.72
739.161	123.68
739.599	110.3
740.037	153.83
740.475	107.57
740.913	122.06
741.351	108.07
741.789	118.61
742.227	106.45
742.665	119.02
743.102	116.89
743.54	115.01
743.978	126.74
744.416	113.17
744.853	116.26
745.291	110.58
745.729	114.69
746.166	120.91
746.604	116.03
747.041	116.72
747.479	125.63
747.916	117.44
748.354	119.31
748.791	119.96
749.228	114.21
749.666	113.65
750.103	123.23
750.54	119.42
750.978	111.01
751.415	116.07
751.852	124.91
752.289	131.23
752.726	117.76
753.164	117.97
753.601	118.72
754.038	126.27
754.475	128.57
754.912	124.13
755.349	126.26
755.786	111.86
756.223	115.23
756.659	121.83
757.096	123.99
757.533	120.79
757.97	113.7
758.407	111.51
758.843	117.62
759.28	117.45
759.717	121.29
760.153	126.66
760.59	114.51
761.027	107.43
761.463	124.37
761.9	115.92
762.336	115.19
762.773	119.81
763.209	115.8
763.646	108.19
764.082	104.96
764.518	117.36
764.955	123.71
765.391	113.27
765.827	118.94
766.263	125.15
766.7	151.52
767.136	111.47
767.572	119.36
768.008	119.43
768.444	123.46
768.88	107.72
769.316	125.8
769.752	118.08
770.188	101.05
770.624	114.48
771.06	116.57
771.496	125.44
771.932	119.51
772.367	108.89
772.803	125.38
773.239	106.95
773.675	117.16
774.11	124.68
774.546	130.3
774.982	115.08
775.417	119.47
775.853	112.74
776.288	122.63
776.724	119.65
777.159	109.94
777.595	108.97
778.03	99.77
778.466	117.06
778.901	103.35
779.336	115.57
779.772	116.86
780.207	114.01
780.642	144.37
781.077	109.09
781.513	123.34
781.948	110.86
782.383	129.31
782.818	107.32
783.253	109.5
783.688	112.4
784.123	119.52
784.558	126.03
784.993	130.79
785.428	119.39
785.863	113.02
786.298	112.54
786.733	110.38
787.167	131.6
787.602	103.68
788.037	119.69
788.472	112.07
788.906	121.96
789.341	118.96
789.776	128.24
790.21	138.87
790.645	113.89
791.079	126.91
791.514	118.61
791.948	124.63
792.383	114.12
792.817	140.65
793.252	121.45
793.686	115.1
794.12	124.56
794.554	120.27
794.989	120.4
795.423	127.82
795.857	111.02
796.291	114.39
796.725	113.5
797.16	110.26
797.594	128.71
798.028	113.34
798.462	117.82
798.896	113.74
799.33	112.42
799.764	117.75
800.198	124.45
800.631	125.62
801.065	123.99
801.499	117.58
801.933	115.09
802.367	164
802.8	121.53
803.234	109.01
803.668	139.4
804.101	109.81
804.535	115.04
804.968	106.64
805.402	120.91
805.835	137.72
806.269	123.1
806.702	122.2
807.136	116.91
807.569	117.98
808.003	127.55
808.436	119.85
808.869	115.76
809.302	115.69
809.736	119.53
810.169	127.26
810.602	121.05
811.035	108.74
811.468	123.22
811.901	130.05
812.335	128.95
812.768	121.05
813.201	118.86
813.633	119.81
814.066	120.47
814.499	125.54
814.932	113.16
815.365	104.22
815.798	134.19
816.231	110.19
816.663	122.43
817.096	113.28
817.529	114.84
817.961	136.35
818.394	125.13
818.827	110.51
819.259	116.3
819.692	114.31
820.124	115.08
820.557	115.71
820.989	127.07
821.422	104.52
821.854	127.18
822.286	102.38
822.719	108.98
823.151	117.22
823.583	120.89
824.016	107.78
824.448	122.76
824.88	125.94
825.312	112.12
825.744	130.08
826.176	124.08
826.608	119.72
827.04	124.17
827.472	125.23
827.904	124.55
828.336	123.53
828.768	125.31
829.2	109.47
829.632	110.18
830.064	124.15
830.495	120.33
830.927	110.11
831.359	116.43
831.791	124.07
832.222	122.23
832.654	114.6
833.086	103.7
833.517	118.24
833.949	131.76
834.38	118.42
834.812	117.88
835.243	115.22
835.674	119.43
836.106	113.91
836.537	122.41
836.969	121.66
837.4	116.94
837.831	126.91
838.262	147.02
838.693	113.51
839.125	135.02
839.556	112.55
839.987	129.06
840.418	122.52
840.849	127.18
841.28	124.88
841.711	114.57
842.142	109.6
842.573	123.41
843.004	117.4
843.435	99.39
843.865	119.08
844.296	122.7
844.727	123.06
845.158	107.37
845.589	125.56
846.019	112.5
846.45	119.61
846.88	117.5
847.311	121.58
847.742	117.65
848.172	119.51
848.603	119.47
849.033	132.08
849.464	141.45
849.894	119.92
850.324	132.71
850.755	116.22
851.185	115.13
851.615	101.86
852.045	114.58
852.476	111.02
852.906	112.6
853.336	121.93
853.766	110.18
854.196	109.95
854.626	110.08
855.056	123.9
855.486	115.55
855.916	113.88
856.346	126.16
856.776	122.94
857.206	123.95
857.636	117.69
858.066	113.95
858.495	117.82
858.925	115.71
859.355	124.08
859.785	122.04
860.214	125.64
860.644	104.71
861.074	136.82
861.503	125.84
861.933	112
862.362	118.88
862.792	118.4
863.221	122.12
863.651	121.99
864.08	114.36
864.509	114.1
864.939	111.56
865.368	111.55
865.797	117.99
866.226	116.73
866.656	133.67
867.085	128.64
867.514	124.73
867.943	115
868.372	111.64
868.801	110.9
869.23	128.9
869.659	129.06
870.088	128.63
870.517	117.95
870.946	125.17
871.375	117.66
871.804	139.41
872.232	111.31
872.661	112.5
873.09	122.85
873.519	141.62
873.947	114.81
874.376	116.41
874.804	113.82
875.233	132.79
875.662	116.99
876.09	112.15
876.519	111.91
876.947	110.29
877.375	130.95
877.804	122.21
878.232	100.52
878.66	107.93
879.089	133.47
879.517	129.14
879.945	127.24
880.373	121.48
880.802	126.38
881.23	105.44
881.658	107.62
882.086	126.03
882.514	116.19
882.942	128.21
883.37	130.15
883.798	113.35
884.226	113.48
884.654	114.8
885.082	107.67
885.51	107.69
885.937	116.7
886.365	118.69
886.793	120.59
887.221	122.28
887.648	119.6
888.076	116.46
888.503	122.35
888.931	115.96
889.359	111.99
889.786	133.18
890.214	102.31
890.641	116.34
891.068	125.77
891.496	104.19
891.923	117.47
892.351	118.11
892.778	128.86
893.205	109.52
893.632	122.55
894.06	132.84
894.487	119.3
894.914	145.74
895.341	129.67
895.768	110.52
896.195	130.27
896.622	110.36
897.049	121.91
897.476	130.37
897.903	110.62
898.33	120.68
898.757	108.84
899.184	123.71
899.61	109.43
900.037	117.38
900.464	109.37
900.891	103.06
901.317	103.31
901.744	117.77
902.17	111.67
902.597	104.3
903.024	125.53
903.45	120.14
903.877	113.77
904.303	126.51
904.729	120.66
905.156	107.89
905.582	137.85
906.008	111.7
906.435	125.85
906.861	121.46
907.287	111.6
907.713	121.17
908.14	116.6
908.566	120.34
908.992	116.38
909.418	119.84
909.844	113.88
910.27	127.26
910.696	127.36
911.122	118.71
911.548	105.25
911.974	124.75
912.4	108.01
912.825	116
913.251	127.12
913.677	119.86
914.103	118.45
914.528	118.59
914.954	102.61
915.38	118.96
915.805	114.65
916.231	120.41
916.656	118.16
917.082	124.09
917.507	121.8
917.933	118.86
918.358	118.06
918.784	120.54
919.209	114.59
919.634	108.55
920.059	116.75
920.485	155.62
920.91	115.57
921.335	138.93
921.76	110.4
922.185	119.24
922.61	118.42
923.036	123.38
923.461	121.16
923.886	121.01
924.31	105.1
924.735	115.92
925.16	122.43
925.585	121.92
926.01	118.3
926.435	127.15
926.86	124.53
927.284	128.1
927.709	116.97
928.134	111.41
928.558	111.56
928.983	110.68
929.408	107.57
929.832	121.43
930.257	112.23
930.681	118.2
931.106	124.53
931.53	124.68
931.954	121.58
932.379	129.38
932.803	120.44
933.227	163.75
933.652	114.15
934.076	124.64
934.5	125.18
934.924	118.9
935.348	130.15
935.772	109.34
936.197	122.37
936.621	119.34
937.045	131.33
937.469	107.69
937.893	117.75
938.316	120.4
938.74	114.57
939.164	106.74
939.588	127.36
940.012	117.34
940.436	125.25
940.859	112
941.283	118.48
941.707	121.28
942.13	127.71
942.554	129.24
942.977	113.32
943.401	98.88
943.824	120.54
944.248	122.46
944.671	105.08
945.095	133.01
945.518	118.16
945.941	109.18
946.365	121
946.788	111.98
947.211	117.47
947.634	112.55
948.058	120.18
948.481	127.83
948.904	121.82
949.327	105.31
949.75	110.56
950.173	126.11
950.596	114.51
951.019	122.43
951.442	118.64
951.865	105.56
952.288	118.24
952.71	123.89
953.133	98.19
953.556	121.29
953.979	107.07
954.401	131.09
954.824	122.06
955.247	125.12
955.669	111.16
956.092	122.6
956.514	109.23
956.937	112.42
957.359	134.1
957.782	119.56
958.204	104.33
958.627	132.8
959.049	117.28
959.471	119.52
959.893	120.88
960.316	136.97
960.738	115.76
961.16	112.08
961.582	126.15
962.004	110.06
962.426	127.35
962.848	130.07
963.27	108.46
963.692	111.73
964.114	110.41
964.536	118.71
964.958	105.71
965.38	113.77
965.802	114.81
966.224	120.73
966.645	125.45
967.067	121.51
967.489	117.89
967.911	123.43
968.332	120.89
968.754	134.03
969.175	109.61
969.597	124.7
970.018	114.08
970.44	140.73
970.861	139.8
971.283	124.71
971.704	129.07
972.125	118.11
972.547	118.7
972.968	126.67
973.389	122.06
973.81	126.83
974.232	103.68
974.653	125
975.074	127.75
975.495	107.91
975.916	142.2
976.337	124.64
976.758	114.43
977.179	113.09
977.6	124.54
978.021	109.17
978.442	125.8
978.862	122.78
979.283	108.68
979.704	118.07
980.125	135.06
980.545	118.92
980.966	124.36
981.387	121.97
981.807	118.31
982.228	106.44
982.648	112.26
983.069	132.8
983.489	128.58
983.91	122.73
984.33	129.64
984.75	127.7
985.171	126.07
985.591	118.17
986.011	122.93
986.431	121.21
986.852	111.54
987.272	120.82
987.692	112.69
988.112	119.15
988.532	115.66
988.952	128.71
989.372	119.84
989.792	115.76
990.212	132.42
990.632	124.9
991.052	116.31
991.472	152.24
991.892	122.22
992.311	108.06
992.731	108.95
993.151	117.08
993.57	117.16
993.99	133.61
994.41	118.46
994.829	113.31
995.249	122.65
995.668	130.48
996.088	104.36
996.507	117.75
996.927	127.41
997.346	122.2
997.765	125.51
998.185	145.38
998.604	131.54
999.023	117.81
999.442	107.45
999.862	122.46
1000.281	126.07
1000.7	127.48
1001.119	109.3
1001.538	127.14
1001.957	115.73
1002.376	136.25
1002.795	131.64
1003.214	109.99
1003.633	127.46
1004.052	117.49
1004.471	115.39
1004.889	119.93
1005.308	126.6
1005.727	117.37
1006.146	148.85
1006.564	111.46
1006.983	126.51
1007.401	130.1
1007.82	118.17
1008.238	119.35
1008.657	119.18
1009.075	124.98
1009.494	109.33
1009.912	138.47
1010.331	123.92
1010.749	114.31
1011.167	131.23
1011.586	119.75
1012.004	124.36
1012.422	122.08
1012.84	127.79
1013.258	153.19
1013.676	129.19
1014.094	126.56
1014.512	102.13
1014.93	121.5
1015.348	123.09
1015.766	124.2
1016.184	125.62
1016.602	126.11
1017.02	126.58
1017.438	115.38
1017.856	106.9
1018.273	128.45
1018.691	123.04
1019.109	117.91
1019.526	139.03
1019.944	123.64
1020.361	118.99
1020.779	117.23
1021.197	125.96
1021.614	121.64
1022.031	128.02
1022.449	119.08
1022.866	124.87
1023.284	123.48
1023.701	132.75
1024.118	122.06
1024.535	125.74
1024.953	113.69
1025.37	139.5
1025.787	104.49
1026.204	130.71
1026.621	129.06
1027.038	126.4
1027.455	117.83
1027.872	126.89
1028.289	122.06
1028.706	124.14
1029.123	118.02
1029.54	117.41
1029.956	108.17
1030.373	134.12
1030.79	118.23
1031.207	126.3
1031.623	129.77
1032.04	129.91
1032.457	113.6
1032.873	127.31
1033.29	124.25
1033.706	119.06
1034.123	134.39
1034.539	121.35
1034.956	110.43
1035.372	108.97
1035.788	120.02
1036.205	119.54
1036.621	118.09
1037.037	127.69
1037.453	123.77
1037.87	132.21
1038.286	130.69
1038.702	111.92
1039.118	114.95
1039.534	138.3
1039.95	116.19
1040.366	110.56
1040.782	138.21
1041.198	127.85
1041.614	120.88
1042.029	124.57
1042.445	118.67
1042.861	103.47
1043.277	137.29
1043.693	115.2
1044.108	117.05
1044.524	124.43
1044.939	143.81
1045.355	133.8
1045.771	120.21
1046.186	110.6
1046.602	111.58
1047.017	114.65
1047.432	120.64
1047.848	125.89
1048.263	126.25
1048.678	115.79
1049.094	127.78
1049.509	123.06
1049.924	116.56
1050.339	122.26
1050.754	118.44
1051.17	126.51
1051.585	107.36
1052	116.7
1052.415	118.29
1052.83	112.06
1053.245	134.21
1053.66	126.37
1054.074	132.4
1054.489	135.67
1054.904	114.64
1055.319	143.31
1055.734	118.04
1056.148	117.33
1056.563	118.46
1056.978	120.06
1057.392	121.48
1057.807	106.71
1058.221	113.45
1058.636	132.65
1059.05	121.94
1059.465	117.92
1059.879	122.01
1060.293	123.97
1060.708	130.51
1061.122	110.08
1061.536	135.57
1061.951	128.81
1062.365	117.09
1062.779	114.85
1063.193	139.97
1063.607	113.87
1064.021	110.19
1064.435	115.9
1064.849	115.14
1065.263	115.48
1065.677	122.02
1066.091	128.23
1066.505	136.73
1066.919	114.41
1067.333	116.63
1067.746	142.51
1068.16	118.64
1068.574	121.93
1068.987	123.62
1069.401	129.14
1069.815	114.14
1070.228	115.44
1070.642	120.89
1071.055	110.59
1071.469	115.65
1071.882	119.49
1072.296	125.03
1072.709	119.97
1073.122	118.18
1073.536	114.7
1073.949	112.58
1074.362	124.03
1074.775	133.34
1075.188	125.92
1075.601	130.32
1076.015	123.8
1076.428	117.53
1076.841	112.83
1077.254	135.3
1077.667	123
1078.079	127.94
1078.492	125.66
1078.905	115.67
1079.318	128.65
1079.731	114.07
1080.144	134.46
1080.556	121.75
1080.969	120.89
1081.382	114.93
1081.794	123.77
1082.207	121.7
1082.619	130.18
1083.032	112.12
1083.444	115
1083.857	115.01
1084.269	117.27
1084.682	117.39
1085.094	119.09
1085.506	125.27
1085.918	123.12
1086.331	118.23
1086.743	117.55
1087.155	127.4
1087.567	129.17
1087.979	115.82
1088.391	117.26
1088.803	125.67
1089.215	114.22
1089.627	121.89
1090.039	117.27
1090.451	123.66
1090.863	125.43
1091.275	120.5
1091.687	124.84
1092.098	112.43
1092.51	114.66
1092.922	124.18
1093.334	118.04
1093.745	111.92
1094.157	124.38
1094.568	120.48
1094.98	109.81
1095.391	107.32
1095.803	118.44
1096.214	115.89
1096.626	114.33
1097.037	112.41
1097.448	115.26
1097.86	119.34
1098.271	113.31
1098.682	106.05
1099.093	113.91
1099.504	102.4
1099.916	111.12
1100.327	111.57
1100.738	117.56
1101.149	107.92
1101.56	103.74
1101.971	130.44
1102.381	111.81
1102.792	114.29
1103.203	113.27
1103.614	108.27
1104.025	104.35
1104.436	110.31
1104.846	117.42
1105.257	146.07
1105.668	110.59
1106.078	112.65
1106.489	107.24
1106.899	104.28
1107.31	106.63
1107.72	105.25
1108.131	116.23
1108.541	108.47
1108.951	119.72
1109.362	112.5
1109.772	109.43
1110.182	102.43
1110.592	125.93
1111.003	-5.51
1111.413	-3.91
1111.823	-4.55
1112.233	-6.22
